1638355731.00
64.000000
-0.00
-0.00
-0.00
-0.00
-0.00
-0.00
-0.00
-0.00
-0.00
-0.00
0.00
0.01
0.01
-0.00
-0.03
-0.05
-0.05
0.00
0.13
0.36
0.66
1.01
1.37
1.72
2.06
2.40
2.79
3.25
3.81
4.44
5.11
5.76
6.37
6.95
7.57
8.31
9.18
10.28
11.50
12.70
13.78
14.71
15.59
16.63
18.04
19.96
22.55
25.56
28.70
31.66
34.35
36.92
39.76
43.32
47.88
53.71
60.36
67.27
73.89
80.03
85.94
92.28
99.79
108.86
119.76
131.67
143.62
154.82
165.08
174.94
185.48
198.17
211.42
226.81
244.21
263.28
282.93
300.98
314.13
318.64
311.42
291.01
258.52
216.42
168.16
117.13
66.19
17.44
-27.75
-68.76
-106.08
-141.23
-176.54
-213.83
-253.67
-294.65
-334.23
-368.83
-394.91
-409.16
-409.61
-396.79
-374.05
-347.08
-321.70
-301.96
-288.22
-277.46
-265.69
-250.07
-231.18
-211.94
-195.77
-183.77
-174.17
-162.97
-146.45
-123.73
-96.87
-70.57
-50.21
-39.52
-39.20
-46.87
-57.00
-62.57
-57.91
-39.92
-10.60
24.22
55.96
77.15
83.85
77.50
64.00
50.33
42.22
41.31
45.65
52.06
57.60
61.76
65.48
70.34
76.35
82.10
84.48
80.50
69.20
51.86
32.47
16.02
6.29
4.78
9.66
15.98
18.03
11.97
-2.66
-21.74
-38.94
-48.15
-46.16
-33.60
-15.03
3.50
16.86
22.01
18.93
9.77
-2.66
-15.00
-24.37
-28.19
-24.97
-15.14
-1.68
11.12
18.85
19.00
12.34
2.19
-7.39
-12.74
-12.26
-5.80
5.77
20.48
35.56
47.20
51.40
45.65
30.56
10.32
-8.33
-18.82
-17.41
-4.74
14.95
35.37
50.48
56.77
53.11
41.09
23.46
3.39
-16.41
-34.38
-49.58
-61.63
-69.86
-73.55
-72.51
-67.11
-59.08
-50.42
-43.29
-38.40
-34.93
-31.07
-24.97
-15.85
-4.34
7.96
19.48
28.91
35.75
39.33
39.20
34.96
27.61
20.06
16.26
20.70
35.58
59.72
87.44
110.52
120.88
113.73
90.17
56.39
21.45
-6.02
-20.96
-23.48
-18.25
-11.95
-11.13
-18.73
-33.86
-52.62
-69.89
-81.51
-85.45
-81.54
-70.54
-53.74
-32.37
-8.53
14.81
33.95
45.56
48.10
42.47
31.90
20.53
11.74
6.80
4.59
2.87
-0.53
-6.27
-13.21
-19.00
-21.82
-20.93
-17.29
-12.58
-7.23
-0.96
7.37
17.75
28.07
35.03
35.11
26.86
11.22
-9.26
-31.68
-52.76
-68.99
-76.32
-70.90
-50.98
-18.76
19.29
54.48
79.63
91.68
92.20
84.93
73.26
57.95
37.67
10.61
-22.54
-57.92
-88.19
-104.91
-101.53
-75.30
-29.98
25.22
77.36
114.00
127.78
118.20
91.72
58.17
26.67
2.20
-14.24
-23.68
-26.91
-23.36
-12.49
4.15
21.46
32.15
30.04
13.51
-13.00
-40.53
-59.25
-63.07
-52.34
-33.94
-17.06
-8.98
-11.07
-18.77
-25.31
-25.28
-18.02
-6.76
3.81
10.80
14.28
16.81
21.02
27.59
34.82
39.27
37.74
29.15
14.86
-1.55
-15.23
-21.40
-17.47
-4.70
11.72
24.57
28.04
20.30
3.71
-16.75
-36.00
-50.32
-56.72
-52.47
-35.88
-7.99
24.74
51.10
59.53
43.75
7.51
-36.37
-71.78
-87.00
-79.70
-56.82
-29.64
-7.58
4.73
7.79
4.27
-3.70
-15.45
-30.02
-44.34
-52.74
-48.36
-26.93
10.06
54.23
92.68
113.13
109.72
86.13
53.91
26.63
12.43
11.11
15.89
19.19
18.19
15.58
16.60
23.39
33.05
38.65
34.18
18.26
-4.83
-27.52
-43.29
-49.37
-46.95
-38.75
-27.15
-13.38
1.59
15.24
23.60
22.65
10.92
-9.10
-30.68
-45.06
-45.07
-28.04
2.07
36.50
64.93
79.96
79.58
66.86
47.81
27.57
8.98
-8.13
-24.66
-40.18
-52.10
-56.60
-51.36
-37.61
-20.68
-7.59
-3.61
-9.03
-19.04
-27.00
-27.78
-20.71
-9.39
1.06
7.45
9.50
9.22
8.89
8.77
7.69
4.10
-2.15
-9.33
-14.98
-17.51
-17.41
-16.17
-15.37
-15.26
-15.56
-15.68
-14.94
-13.28
-10.47
-6.51
-1.68
2.64
4.68
3.01
-2.21
-8.16
-10.91
-6.91
4.13
18.15
28.10
27.91
16.15
-2.17
-17.29
-19.50
-3.70
27.68
66.01
99.99
120.30
122.42
106.77
77.91
42.34
7.28
-21.12
-38.97
-45.33
-43.03
-37.25
-33.35
-34.07
-38.43
-42.75
-43.02
-37.38
-26.66
-14.34
-4.05
2.05
4.69
6.53
10.25
16.16
21.08
19.58
7.11
-15.70
-42.22
-62.21
-67.31
-55.79
-33.11
-8.93
8.89
18.07
21.37
22.93
23.20
17.77
0.77
-29.81
-68.56
-103.87
-123.33
-120.46
-98.49
-68.29
-42.07
-27.44
-24.12
-25.85
-24.99
-16.65
-1.12
17.69
34.55
45.95
50.85
50.62
48.15
46.55
48.59
55.52
67.09
81.19
94.37
102.93
104.41
98.89
88.93
78.34
69.66
62.87
55.36
43.48
25.17
1.81
-21.80
-40.07
-49.21
-50.17
-47.94
-48.39
-54.55
-63.29
-67.03
-56.79
-27.91
17.35
69.63
115.88
144.61
149.91
133.53
102.94
68.16
36.99
12.30
-7.77
-27.01
-47.64
-68.00
-82.68
-86.34
-76.73
-57.23
-35.86
-21.51
-19.90
-30.04
-45.21
-55.41
-52.46
-33.47
-2.54
29.95
51.92
53.78
33.38
-3.02
-42.86
-72.55
-83.48
-74.36
-50.49
-19.44
11.70
38.65
58.57
68.51
65.82
49.21
21.05
-12.32
-42.18
-61.45
-67.27
-61.25
-47.82
-31.67
-16.73
-6.13
-2.14
-5.60
-15.44
-28.45
-39.90
-45.93
-44.97
-38.06
-27.51
-14.91
-0.33
17.69
39.54
63.56
85.14
98.99
100.87
89.86
68.45
41.11
13.39
-9.88
-25.52
-33.74
-37.68
-42.21
-51.97
-68.32
-88.17
-104.45
-109.25
-97.35
-68.79
-28.43
16.55
59.08
94.43
119.55
131.88
129.19
110.53
78.19
38.05
-1.74
-34.68
-58.04
-73.49
-84.60
-93.33
-98.08
-93.92
-76.74
-46.97
-11.38
19.86
37.92
40.06
31.76
23.11
23.11
33.62
48.78
57.98
53.27
34.04
8.15
-12.36
-18.30
-7.89
12.33
32.06
42.90
41.58
30.50
14.73
-0.97
-13.85
-22.96
-27.83
-27.90
-22.56
-12.12
2.02
16.82
28.05
30.62
19.91
-5.44
-41.80
-79.42
-105.81
-110.28
-89.82
-50.14
-3.82
36.27
62.47
74.18
76.16
73.30
67.70
57.94
41.90
20.07
-4.07
-25.16
-39.83
-48.37
-54.70
-63.29
-75.86
-89.74
-98.59
-95.83
-77.90
-46.96
-10.06
23.87
47.35
57.39
55.90
48.36
41.28
39.77
46.02
59.53
77.49
95.71
109.86
115.62
110.31
93.17
66.37
35.79
9.53
-4.30
-1.49
16.57
42.35
65.12
75.07
67.21
42.62
7.59
-29.25
-59.98
-79.83
-87.95
-86.87
-80.42
-72.38
-64.99
-58.69
-52.83
-46.17
-37.95
-28.14
-17.24
-5.37
7.24
19.93
30.01
33.06
24.55
2.75
-28.01
-57.90
-74.29
-68.04
-38.20
6.22
49.44
76.61
80.51
64.40
38.78
14.58
-2.43
-13.43
-23.15
-35.79
-51.27
-66.66
-78.01
-82.87
-80.49
-71.06
-55.05
-33.39
-8.84
14.51
31.40
38.36
34.66
22.68
6.49
-10.02
-23.69
-32.35
-34.50
-30.30
-21.22
-10.16
0.15
8.58
15.58
22.94
31.34
39.61
45.45
46.98
44.57
40.14
35.88
32.11
27.18
18.66
5.66
-9.60
-22.60
-28.85
-27.14
-19.75
-11.51
-6.32
-5.78
-9.17
-14.40
-19.85
-24.98
-29.51
-32.34
-31.91
-26.22
-14.17
4.28
28.16
55.14
81.62
101.90
109.30
98.82
70.18
30.82
-6.03
-27.13
-25.73
-5.56
21.16
40.57
44.55
33.81
16.15
0.07
-10.62
-17.96
-26.84
-39.45
-52.34
-57.34
-47.03
-19.89
17.09
50.97
68.88
63.85
38.44
3.00
-28.77
-45.96
-44.98
-30.15
-10.84
3.45
6.64
-1.58
-17.22
-35.05
-50.63
-61.61
-66.78
-65.23
-55.47
-37.42
-13.18
11.96
30.74
37.48
29.77
10.09
-15.29
-38.31
-52.44
-53.85
-43.01
-24.16
-3.04
14.74
26.11
30.34
28.52
22.17
11.70
-2.56
-19.31
-34.72
-44.12
-43.77
-33.51
-17.42
-1.52
9.10
13.43
13.42
12.92
14.43
18.96
25.80
33.73
42.21
50.38
57.51
62.68
65.07
63.74
58.24
48.16
33.56
16.33
0.14
-9.97
-10.30
-0.22
16.83
34.40
45.69
46.45
36.95
21.24
6.16
-1.44
2.69
18.17
39.27
57.14
62.25
48.77
16.88
-26.21
-69.01
-99.35
-108.42
-93.90
-59.99
-16.46
24.38
50.86
55.14
35.48
-2.96
-49.25
-90.22
-114.29
-115.10
-93.01
-54.09
-7.58
37.26
74.10
99.72
112.98
113.84
102.75
81.08
52.47
22.92
-0.47
-12.06
-10.44
1.25
16.79
29.80
36.13
35.18
28.20
16.79
1.03
-20.01
-45.73
-72.79
-94.95
-105.53
-100.85
-82.98
-59.36
-38.54
-26.29
-22.19
-20.94
-16.20
-5.03
9.67
20.17
18.23
0.41
-29.88
-63.28
-88.73
-98.45
-90.33
-68.09
-38.96
-11.18
8.96
17.69
14.59
2.01
-15.89
-34.39
-49.06
-56.20
-53.78
-40.98
-19.17
8.44
37.03
60.53
74.18
76.06
68.29
56.20
45.82
40.55
39.87
40.81
40.19
37.79
36.19
38.17
43.89
49.13
46.65
30.34
-0.52
-40.20
-78.17
-103.99
-111.94
-102.43
-81.43
-57.26
-36.69
-21.92
-11.07
0.82
18.13
41.94
69.34
93.79
108.29
108.54
95.09
72.16
45.43
19.50
-3.58
-23.26
-39.81
-53.32
-63.52
-70.24
-73.15
-70.93
-61.94
-45.73
-24.02
-1.56
15.99
24.52
22.99
14.30
3.67
-3.38
-3.12
6.30
24.22
48.02
72.88
92.44
101.11
96.55
82.12
65.88
57.46
63.23
82.51
107.90
128.63
135.63
125.30
100.46
68.08
34.91
4.64
-23.04
-49.76
-76.14
-99.64
-115.98
-121.81
-117.65
-108.69
-102.16
-104.65
-118.16
-139.38
-160.35
-171.69
-166.12
-140.70
-97.85
-43.80
12.97
64.41
104.16
127.22
130.64
113.81
80.05
37.00
-4.19
-33.42
-45.83
-44.00
-36.95
-33.69
-38.41
-47.60
-53.26
-48.29
-31.23
-6.47
19.34
41.60
60.03
76.05
89.09
94.88
87.87
66.66
37.38
12.56
4.34
17.63
46.66
77.87
97.68
98.36
80.63
51.03
17.70
-13.28
-37.86
-53.28
-57.17
-48.01
-27.59
-1.49
21.92
34.34
31.33
14.31
-9.63
-31.20
-42.23
-39.57
-25.69
-7.38
7.45
13.98
11.78
4.48
-3.70
-10.38
-16.24
-23.03
-30.76
-36.44
-34.26
-19.80
7.10
40.54
70.61
87.43
85.35
65.32
33.61
-0.80
-30.80
-53.58
-70.68
-85.71
-100.30
-112.81
-118.04
-111.62
-93.04
-67.72
-45.01
-33.10
-35.00
-46.32
-58.56
-63.16
-56.29
-39.32
-17.23
5.11
25.21
42.52
57.38
68.69
74.57
73.18
63.65
47.20
26.55
6.03
-10.28
-18.88
-18.94
-12.29
-3.23
2.94
3.28
-2.40
-10.64
-17.56
-20.53
-19.50
-15.94
-10.90
-4.22
5.96
20.46
38.51
56.73
71.31
79.86
81.81
78.50
71.16
60.51
46.09
27.40
5.71
-15.93
-32.85
-41.06
-38.19
-25.42
-6.56
12.92
27.80
34.88
32.68
21.80
3.35
-20.47
-46.64
-70.95
-88.87
-96.57
-92.87
-80.36
-64.09
-49.67
-40.32
-35.95
-32.99
-26.37
-12.84
7.95
32.64
55.81
72.07
77.85
72.67
59.30
42.76
28.25
19.41
17.40
21.48
30.30
43.00
58.92
76.02
90.41
96.10
88.30
66.29
34.88
3.00
-20.32
-30.37
-28.82
-21.95
-16.59
-16.32
-21.06
-28.89
-38.28
-49.17
-60.86
-69.87
-70.44
-57.63
-31.87
-0.38
25.17
34.87
25.97
3.94
-20.41
-37.26
-42.27
-37.23
-27.12
-16.82
-8.36
-2.06
1.93
2.45
-2.32
-13.40
-29.54
-46.77
-59.96
-64.70
-59.14
-44.75
-25.62
-7.05
7.19
16.34
23.18
31.69
43.86
57.78
67.37
66.32
51.66
27.11
1.75
-15.20
-18.68
-10.49
3.25
16.11
25.97
35.00
47.85
67.35
91.73
115.51
131.69
134.98
123.53
99.49
67.41
32.55
-0.52
-29.86
-55.68
-79.57
-101.61
-119.61
-128.54
-123.93
-105.32
-77.79
-50.72
-32.62
-27.01
-30.74
-36.54
-37.71
-32.26
-23.21
-16.01
-14.80
-19.18
-25.09
-27.19
-22.32
-11.07
2.83
14.24
18.90
15.21
5.06
-7.62
-18.41
-23.74
-22.51
-15.43
-4.64
7.67
19.57
29.91
38.44
45.70
52.77
60.06
66.76
70.88
70.41
64.64
56.01
48.36
45.15
46.96
50.18
49.33
40.20
22.53
-0.26
-23.06
-42.25
-56.96
-68.48
-77.45
-82.11
-78.58
-63.26
-35.99
-2.01
29.43
48.38
48.64
30.93
2.80
-24.51
-41.53
-44.56
-37.13
-26.64
-19.31
-16.30
-13.63
-5.83
9.30
28.14
42.52
43.99
28.37
-1.87
-38.76
-72.26
-93.86
-99.19
-88.25
-64.67
-33.75
-1.89
24.88
42.04
47.87
44.15
36.05
30.12
31.63
42.09
58.78
76.25
87.99
89.18
78.02
56.44
29.20
2.30
-18.23
-28.90
-29.33
-22.85
-15.70
-14.35
-23.14
-41.46
-64.12
-83.48
-92.98
-89.92
-76.02
-56.91
-38.51
-25.54
-19.19
-18.36
-20.73
-24.68
-29.59
-34.90
-39.40
-40.22
-34.81
-21.84
-3.09
17.12
33.62
42.79
44.41
41.24
38.11
39.04
46.28
59.39
75.91
92.18
104.16
108.09
100.81
81.33
50.94
14.15
-22.25
-51.33
-67.84
-70.82
-62.96
-49.77
-37.16
-29.69
-29.18
-34.65
-43.74
-53.05
-60.25
-63.97
-64.04
-60.54
-53.08
-40.83
-22.88
0.36
26.80
52.04
70.48
77.33
70.80
53.52
32.97
18.84
18.14
31.47
51.46
65.85
63.62
41.21
5.40
-29.95
-51.00
-51.51
-35.33
-13.15
4.45
12.92
14.31
14.10
16.07
20.09
23.63
24.94
25.51
29.14
39.30
55.00
70.25
76.26
65.93
38.51
0.76
-35.71
-59.70
-64.73
-51.78
-28.16
-3.96
12.03
15.65
7.95
-6.81
-23.15
-36.13
-42.07
-38.55
-24.66
-2.00
25.03
49.99
66.95
72.92
68.81
58.21
44.36
28.51
9.92
-10.89
-29.97
-39.94
-33.62
-10.30
21.64
46.79
51.06
29.55
-9.62
-49.15
-71.79
-68.83
-43.57
-7.88
25.26
47.76
57.84
57.02
46.90
27.60
0.03
-31.90
-60.53
-77.53
-78.37
-65.14
-46.25
-31.70
-28.16
-35.38
-46.77
-53.28
-48.34
-31.92
-10.10
7.33
11.86
-0.10
-25.08
-54.31
-77.60
-87.60
-82.58
-65.61
-42.00
-16.04
9.48
32.61
50.89
61.51
63.29
57.92
50.82
47.55
50.96
58.79
64.69
62.91
51.52
34.11
16.90
4.78
-1.69
-5.85
-11.90
-22.27
-35.72
-48.53
-56.26
-56.16
-48.33
-36.21
-25.01
-18.93
-19.34
-23.42
-26.09
-22.34
-10.52
6.14
21.44
29.01
25.94
13.03
-5.93
-26.81
-45.94
-60.29
-66.93
-62.38
-44.85
-15.70
19.66
53.79
80.29
96.03
101.57
99.16
90.99
78.07
61.07
41.38
21.52
4.06
-10.18
-22.28
-34.82
-49.35
-65.00
-78.02
-83.40
-78.37
-64.00
-45.14
-27.31
-13.82
-4.51
3.30
12.09
22.04
30.75
35.77
36.75
36.61
40.32
51.16
68.04
84.03
89.45
76.93
45.90
3.54
-38.11
-67.33
-78.05
-71.35
-53.77
-32.87
-13.62
3.05
18.93
35.03
49.91
58.89
57.12
42.76
19.08
-6.78
-27.51
-38.50
-39.78
-34.32
-25.72
-15.46
-2.15
16.10
39.76
65.46
87.36
98.90
96.08
79.17
52.88
24.26
-0.01
-15.38
-20.84
-18.88
-14.30
-11.62
-13.35
-19.03
-25.70
-29.90
-29.23
-24.57
-19.77
-20.83
-33.17
-58.99
-95.53
-134.59
-164.85
-174.93
-157.94
-114.36
-52.42
14.41
71.79
108.49
119.48
106.02
74.91
35.80
-1.33
-29.24
-45.28
-51.77
-53.62
-54.74
-55.21
-50.67
-35.37
-6.96
30.28
65.97
88.98
93.12
80.64
60.68
44.09
38.54
45.41
61.19
79.87
96.10
106.29
108.41
101.13
83.61
55.96
19.61
-22.35
-65.94
-106.45
-138.71
-157.44
-158.23
-139.40
-103.18
-56.25
-7.84
32.70
58.24
66.22
58.86
41.99
22.56
6.30
-4.54
-10.63
-14.57
-18.68
-23.39
-27.83
-30.04
-29.27
-25.98
-21.34
-15.81
-8.73
0.78
12.34
23.18
28.95
26.38
15.57
1.09
-10.10
-11.81
-2.18
15.92
35.92
51.34
59.08
60.12
58.44
57.61
57.97
56.24
48.39
32.48
11.33
-8.91
-22.44
-27.70
-28.69
-31.84
-41.83
-57.86
-73.17
-78.93
-69.78
-47.32
-19.41
4.31
17.57
20.96
19.63
19.75
23.71
28.86
29.77
22.32
6.36
-14.00
-32.72
-45.68
-52.38
-56.49
-62.50
-72.25
-82.81
-87.76
-81.12
-61.25
-33.23
-6.46
9.39
9.29
-4.69
-25.25
-43.05
-50.82
-45.47
-28.54
-3.71
24.49
51.86
74.85
90.28
95.99
91.39
78.00
58.95
38.61
21.44
10.76
8.09
12.19
20.86
31.47
42.74
54.64
66.57
76.27
79.44
72.17
52.95
25.15
-4.33
-28.07
-41.76
-46.24
-46.46
-48.14
-53.23
-59.33
-60.70
-52.80
-35.62
-14.26
4.23
14.67
16.97
16.11
18.53
27.37
40.21
50.16
50.30
37.76
16.06
-7.58
-25.69
-34.53
-35.28
-31.98
-29.50
-30.43
-34.41
-37.91
-36.01
-24.46
-2.30
26.77
55.09
73.10
73.88
55.38
21.14
-21.83
-66.51
-107.64
-141.47
-163.76
-169.66
-155.34
-121.05
-73.47
-23.82
17.05
43.53
57.40
66.07
76.83
92.88
111.85
127.69
134.72
129.92
113.75
88.15
56.00
20.92
-12.63
-39.27
-54.52
-56.49
-47.44
-32.38
-16.17
-1.29
12.73
27.26
42.32
54.54
59.17
52.77
36.37
15.25
-4.64
-20.43
-34.37
-51.57
-75.10
-101.53
-121.41
-123.96
-103.34
-63.55
-17.14
20.44
39.02
37.80
24.23
9.10
-0.06
-1.64
0.70
2.84
3.31
4.52
10.75
24.42
44.31
65.07
80.54
86.69
83.86
76.24
69.44
67.39
70.37
75.48
77.87
73.28
59.69
38.23
12.65
-13.21
-36.16
-54.98
-68.66
-76.21
-76.10
-66.92
-49.68
-27.66
-6.54
8.73
15.44
14.39
8.38
0.56
-7.39
-15.79
-25.02
-34.85
-43.54
-49.22
-50.75
-48.70
-45.25
-43.10
-44.48
-49.44
-55.99
-60.02
-57.28
-45.91
-27.33
-6.84
9.15
15.19
9.99
-3.25
-18.34
-28.80
-30.96
-25.16
-15.27
-5.40
2.23
8.37
15.71
26.10
38.62
49.04
52.85
48.04
37.62
27.77
24.86
31.03
42.41
51.71
51.65
39.63
18.13
-6.54
-27.89
-42.28
-50.04
-55.07
-61.57
-72.22
-86.42
-100.32
-108.44
-106.07
-90.91
-63.58
-27.21
14.30
56.46
94.09
121.36
132.42
123.77
96.05
55.57
12.49
-21.83
-38.86
-34.99
-11.59
25.67
68.70
108.11
135.57
145.24
136.12
112.22
80.47
48.06
18.73
-6.75
-29.15
-47.61
-58.71
-57.77
-42.06
-14.08
19.08
47.59
63.31
61.98
44.30
14.47
-21.49
-56.56
-84.37
-100.06
-102.34
-93.71
-79.70
-66.84
-59.49
-59.24
-64.99
-73.77
-81.79
-85.08
-80.00
-64.14
-38.36
-7.08
21.90
40.44
43.42
31.23
9.15
-14.78
-32.96
-41.87
-41.84
-36.17
-28.65
-22.20
-17.84
-15.09
-13.22
-10.79
-6.74
-0.06
9.41
20.63
31.62
40.00
44.60
46.22
47.28
50.31
55.90
62.44
67.00
68.12
66.67
65.68
67.02
69.34
68.55
60.33
43.30
19.62
-6.17
-30.64
-52.93
-73.62
-92.04
-104.94
-107.74
-97.16
-74.85
-47.03
-22.38
-7.31
-3.14
-5.98
-8.59
-4.08
11.57
37.36
67.62
93.46
106.02
100.90
80.03
52.02
27.95
17.15
22.18
38.47
57.20
69.58
71.53
63.96
51.36
38.31
27.28
17.44
5.96
-9.91
-30.92
-54.21
-74.28
-84.53
-80.63
-61.81
-31.95
1.50
30.16
46.49
46.69
31.30
5.18
-23.95
-47.73
-59.44
-56.04
-38.63
-13.07
12.32
28.48
29.47
14.43
-12.56
-43.57
-70.31
-86.20
-89.04
-80.19
-63.78
-44.57
-26.58
-12.57
-3.93
-1.14
-2.88
-6.93
-9.94
-8.69
-1.91
9.49
22.39
32.96
38.24
37.24
31.11
23.19
17.83
18.29
25.55
37.58
50.30
59.14
61.43
56.98
47.76
36.72
26.54
19.07
14.91
13.52
13.67
13.73
12.18
8.40
2.98
-2.67
-6.44
-7.39
-5.93
-3.89
-4.51
-10.46
-22.97
-41.25
-61.97
-80.04
-90.19
-88.65
-74.28
-49.96
-21.10
5.91
25.52
34.32
31.50
18.25
-1.60
-22.84
-39.71
-48.10
-47.03
-39.40
-29.55
-21.36
-16.14
-12.34
-7.16
1.26
13.14
26.30
37.97
46.18
50.20
51.35
51.67
52.70
55.59
60.37
66.31
72.28
76.97
78.92
76.66
68.54
52.82
28.86
-1.99
-36.48
-69.71
-97.33
-117.38
-129.83
-135.72
-135.67
-129.03
-115.35
-95.57
-72.59
-50.30
-31.58
-16.62
-3.08
11.96
29.08
45.08
54.56
53.55
42.46
27.55
17.56
19.27
33.54
54.44
72.79
81.11
77.77
67.23
56.79
50.85
47.97
41.70
25.93
-0.58
-31.52
-56.48
-66.72
-60.07
-42.36
-24.14
-14.49
-16.60
-27.00
-38.76
-45.66
-45.51
-39.83
-31.78
-23.77
-16.68
-11.19
-8.06
-8.29
-11.77
-16.62
-19.49
-17.53
-10.09
0.74
11.47
19.39
23.42
25.15
26.86
30.75
37.57
46.46
55.65
62.23
63.34
56.60
41.38
19.69
-3.49
-22.26
-31.95
-30.65
-20.17
-4.58
11.57
24.49
32.16
33.78
30.05
22.45
13.61
6.19
2.42
3.47
8.60
15.71
22.48
27.60
30.74
32.84
33.97
33.05
28.78
20.25
9.11
-1.68
-8.95
-12.30
-14.07
-18.42
-27.96
-41.88
-56.61
-67.63
-72.72
-73.43
-73.55
-76.50
-82.80
-90.59
-96.22
-97.34
-93.09
-84.20
-71.95
-56.86
-39.05
-18.16
5.65
31.45
56.24
75.84
84.96
79.92
61.41
35.10
10.91
-2.00
1.29
18.39
41.49
61.65
72.90
74.65
70.24
64.43
60.26
58.08
55.68
50.06
39.37
23.43
5.17
-10.71
-19.38
-18.66
-10.22
1.22
10.57
15.67
17.10
17.45
17.88
17.45
13.47
4.10
-9.82
-25.12
-37.84
-46.00
-50.35
-54.00
-59.77
-67.82
-75.58
-79.03
-75.17
-63.31
-45.59
-25.58
-6.96
7.77
18.13
24.59
27.61
26.14
18.19
2.57
-18.56
-38.03
-46.12
-34.86
-3.34
40.64
83.52
112.42
121.94
116.15
105.84
101.09
105.25
113.04
114.28
100.30
69.38
27.72
-14.01
-45.43
-61.08
-61.25
-50.70
-36.51
-25.34
-22.18
-28.67
-43.06
-60.52
-74.74
-80.44
-74.54
-58.12
-35.64
-13.90
-0.18
0.85
-11.27
-32.30
-55.05
-72.37
-80.56
-80.22
-75.87
-72.42
-72.31
-74.48
-74.93
-69.49
-55.70
-33.96
-6.48
23.08
49.95
69.38
76.80
70.50
52.35
28.52
6.83
-6.01
-7.41
0.62
13.47
26.23
36.56
44.50
51.06
56.70
60.40
60.23
54.94
44.74
31.13
16.39
1.94
-11.33
-22.62
-31.10
-35.87
-37.10
-35.73
-34.00
-33.83
-35.90
-38.76
-38.70
-31.59
-14.41
12.04
43.25
71.50
89.38
91.96
79.62
57.78
34.54
17.80
11.40
13.94
19.94
23.02
19.47
9.81
-2.15
-12.14
-17.81
-20.70
-24.22
-30.42
-37.68
-40.23
-32.18
-11.94
14.93
37.50
45.03
33.50
8.30
-18.55
-34.41
-33.43
-18.22
2.35
19.44
28.77
31.46
31.38
31.02
30.20
26.34
17.38
3.54
-12.41
-26.91
-37.46
-44.02
-48.34
-52.37
-56.91
-61.02
-62.25
-58.13
-47.49
-31.05
-11.72
6.55
19.95
26.14
25.17
19.91
14.48
13.17
18.02
28.12
39.69
47.19
46.08
33.81
11.46
-16.91
-45.02
-66.05
-74.69
-68.33
-48.07
-18.47
13.76
40.91
57.03
58.71
46.78
24.83
-1.38
-25.78
-43.33
-50.87
-47.69
-35.31
-17.24
2.30
19.43
31.84
38.63
40.17
37.20
30.29
20.49
8.78
-2.52
-10.97
-13.97
-9.97
0.08
13.50
25.57
32.11
30.07
19.54
3.66
-12.78
-24.65
-29.26
-26.46
-19.21
-10.92
-4.93
-2.97
-5.80
-13.63
-25.38
-38.62
-48.70
-50.10
-38.64
-14.49
16.79
45.72
62.65
63.00
48.27
26.24
6.38
-3.80
-1.71
9.61
24.03
34.36
36.15
28.09
12.39
-7.43
-28.02
-46.79
-61.94
-70.92
-71.44
-61.56
-42.34
-17.97
5.35
22.07
30.30
32.30
33.07
36.56
43.82
53.14
62.31
70.17
76.44
81.21
82.77
78.69
66.94
47.95
25.07
2.62
-15.72
-29.03
-37.61
-42.22
-42.41
-37.60
-28.48
-17.44
-8.69
-5.52
-8.85
-15.63
-21.18
-21.73
-16.26
-7.42
0.30
2.43
-3.71
-18.24
-38.79
-61.82
-83.22
-98.56
-104.61
-99.53
-83.98
-60.78
-34.35
-9.80
8.97
19.42
21.10
15.30
5.47
-3.66
-6.98
-0.84
14.45
34.65
52.44
61.54
59.98
51.58
43.82
42.61
48.72
56.04
55.87
42.42
17.39
-10.73
-30.76
-35.13
-24.48
-5.90
10.77
18.69
16.62
8.29
-0.75
-6.82
-8.08
-4.56
3.23
14.19
25.94
34.89
37.05
30.53
16.61
0.12
-13.56
-21.55
-24.74
-26.82
-30.43
-35.37
-37.92
-34.68
-25.03
-12.11
-0.40
7.65
13.12
19.93
30.46
43.46
53.38
53.95
41.82
18.89
-8.30
-32.76
-49.72
-58.77
-61.67
-60.57
-56.95
-51.62
-45.95
-41.27
-38.28
-35.97
-32.39
-25.84
-16.14
-5.30
3.84
8.62
8.94
6.45
3.59
2.15
2.39
4.04
7.04
12.59
21.55
33.90
47.74
60.22
68.51
70.33
64.48
50.04
27.67
-0.10
-27.53
-46.76
-50.86
-37.20
-10.60
18.12
36.00
34.34
11.95
-24.23
-62.37
-91.18
-102.99
-96.22
-73.43
-40.10
-2.39
34.01
63.96
83.40
89.29
80.79
59.06
27.72
-7.77
-40.93
-66.20
-81.47
-88.61
-93.03
-100.10
-112.30
-127.31
-138.55
-138.65
-123.10
-94.04
-59.50
-30.26
-13.94
-10.98
-13.66
-10.21
8.40
44.02
89.70
134.86
170.64
194.07
207.55
214.56
215.68
207.35
185.58
150.43
108.34
69.00
39.97
22.75
12.77
4.59
-4.06
-10.51
-10.73
-3.95
5.49
10.44
6.42
-5.08
-17.02
-22.04
-18.12
-10.68
-9.68
-23.21
-52.67
-91.43
-128.75
-154.38
-162.94
-154.92
-134.86
-108.62
-80.52
-52.39
-24.28
3.87
30.60
53.11
68.46
75.67
75.95
72.60
68.62
65.09
60.71
52.72
39.44
21.76
3.51
-10.27
-15.58
-11.49
-0.80
10.87
17.07
13.25
-2.10
-26.60
-55.28
-82.30
-103.08
-115.50
-119.31
-116.05
-107.49
-95.04
-79.65
-61.74
-42.29
-22.40
-3.94
11.12
20.67
23.81
21.70
17.99
17.98
26.10
44.76
72.41
104.61
134.58
155.47
162.43
154.48
135.22
111.38
91.01
79.52
78.08
82.97
87.78
86.03
73.89
51.82
23.26
-6.71
-34.36
-58.32
-79.42
-99.59
-119.41
-137.27
-148.52
-147.79
-131.79
-102.56
-67.46
-36.24
-16.94
-11.11
-13.94
-16.21
-9.30
10.44
40.23
71.81
95.81
105.08
97.71
76.81
49.13
21.78
-0.16
-15.36
-25.27
-31.84
-35.76
-35.88
-30.83
-20.83
-9.03
-0.67
0.16
-7.26
-19.27
-29.75
-33.26
-27.70
-14.84
1.04
14.85
22.56
21.65
12.05
-3.11
-18.24
-26.72
-24.98
-15.36
-5.16
-2.91
-12.82
-31.88
-50.95
-60.05
-54.00
-35.16
-11.52
8.59
20.16
22.37
17.09
7.08
-5.23
-16.17
-20.31
-12.25
10.96
46.10
84.36
114.23
126.92
120.12
98.55
71.39
47.73
33.27
28.09
28.20
28.31
24.41
15.52
3.97
-6.38
-12.76
-14.53
-14.24
-15.50
-20.50
-28.78
-36.87
-40.44
-37.02
-28.28
-18.52
-12.82
-13.60
-19.15
-25.70
-29.61
-30.28
-30.02
-32.67
-39.85
-49.31
-55.35
-51.70
-35.73
-10.51
15.01
29.80
25.83
3.12
-29.68
-58.64
-71.31
-64.24
-44.08
-24.87
-19.70
-33.23
-58.82
-82.31
-89.82
-74.48
-39.88
2.92
40.49
62.95
67.37
57.28
39.64
20.86
4.83
-7.72
-16.85
-21.84
-20.41
-10.60
6.15
23.85
33.67
29.59
12.54
-8.84
-22.39
-20.41
-4.11
16.33
29.29
28.84
18.97
10.19
12.30
27.92
50.36
68.10
71.21
57.03
30.68
1.84
-20.89
-33.85
-38.88
-41.03
-43.77
-46.92
-46.35
-37.82
-20.56
1.04
18.65
24.83
17.09
0.55
-14.86
-19.59
-10.20
8.69
27.16
35.24
29.31
13.13
-3.64
-11.05
-3.47
18.07
46.67
73.24
90.19
94.77
88.60
76.57
63.66
53.38
46.64
42.00
36.98
28.78
16.11
-0.49
-18.65
-34.79
-45.42
-48.78
-45.70
-39.29
-33.32
-30.10
-29.80
-30.74
-30.91
-30.15
-30.25
-34.02
-42.87
-55.27
-66.50
-70.58
-63.56
-45.70
-22.62
-2.47
7.15
3.50
-10.39
-26.65
-36.60
-34.62
-20.62
0.45
21.08
35.44
41.47
41.44
40.38
42.75
50.72
63.26
77.32
89.67
98.76
104.91
109.42
113.38
116.58
117.98
116.38
111.29
103.06
93.20
83.13
74.23
67.17
62.04
58.05
53.97
48.51
41.38
34.36
30.53
32.77
41.94
55.24
67.21
71.67
65.04
47.81
24.22
-0.14
-20.12
-32.86
-37.82
-36.38
-30.77
-23.69
-18.37
-17.04
-20.62
-28.34
-38.19
-48.30
-57.14
-65.05
-73.95
-86.77
-106.52
-135.15
-172.70
-216.31
-259.36
-292.24
-304.86
-290.54
-249.93
-192.35
-133.38
-89.13
-69.79
-75.48
-97.27
-121.70
-137.29
-138.77
-127.98
-111.11
-94.68
-82.57
-75.14
-70.55
-66.12
-60.50
-53.91
-47.76
-43.86
-43.15
-45.01
-47.38
-47.88
-44.62
-37.28
-26.95
-15.15
-3.01
9.09
21.33
33.60
44.95
54.02
59.28
59.91
56.73
51.14
45.04
39.74
35.78
31.81
26.44
18.99
10.20
2.24
-2.15
-1.15
4.70
12.83
20.08
24.52
26.56
28.52
33.73
44.35
60.82
82.06
106.79
134.24
164.33
196.49
228.60
256.90
276.48
282.60
271.87
242.84
196.86
138.61
75.80
17.54
-28.25
-57.48
-70.26
-71.71
-69.64
-71.21
-80.20
-96.41
-117.08
-138.99
-160.11
-179.72
-197.80
-214.02
-227.33
-236.39
-240.31
-238.99
-232.90
-223.39
-210.93
-195.53
-177.16
-156.13
-133.24
-109.85
-87.33
-66.62
-47.78
-29.52
-9.25
16.52
51.07
95.82
148.78
204.17
253.79
289.92
307.63
307.37
294.49
276.73
260.77
249.85
243.44
238.80
233.15
225.14
214.94
203.14
189.81
174.24
155.59
133.69
109.50
84.93
62.21
42.99
27.75
15.81
5.74
-3.84
-13.70
-23.71
-33.03
-40.58
-45.58
-47.91
-48.15
-47.25
-46.20
-45.59
-45.50
-45.57
-45.21
-43.93
-41.47
-37.92
-33.61
-29.06
-24.75
-21.00
-17.90
-15.24
-12.65
-9.62
-5.71
-0.77
4.96
10.86
16.19
20.36
23.27
25.29
27.24
29.97
33.88
38.49
42.55
44.43
42.77
37.00
27.47
15.42
2.24
-11.00
-24.07
-37.50
-52.10
-68.52
-86.46
-106.20
-127.46
-148.69
-166.54
-176.13
-172.53
-153.05
-119.70
-77.97
-36.05
-1.52
21.44
33.00
36.56
36.29
35.05
33.63
31.66
28.69
25.23
22.65
22.14
23.90
26.93
29.60
30.37
28.73
25.15
20.89
17.39
15.54
15.35
15.99
16.28
15.20
12.38
8.07
3.01
-1.93
-6.17
-9.64
-12.71
-15.99
-20.05
-25.24
-31.61
-38.98
-47.00
-55.34
-63.73
-72.04
-80.32
-88.80
-97.87
-107.90
-119.16
-131.47
-144.15
-156.03
-165.62
-171.55
-172.91
-169.42
-161.45
-149.73
-134.73
-116.33
-94.01
-67.14
-35.60
-0.34
36.61
72.33
104.01
129.59
148.57
162.00
172.42
183.16
197.28
216.66
240.42
264.65
282.59
286.84
271.88
236.50
184.87
125.12
67.41
20.40
-10.94
-26.38
-29.84
-27.18
-24.19
-24.42
-28.94
-36.45
-44.51
-50.64
-53.03
-51.34
-46.38
-39.90
-33.66
-28.82
-25.56
-23.22
-20.78
-17.33
-12.96
-8.13
-3.55
0.60
4.35
7.88
10.82
12.00
10.49
5.55
-2.28
-11.66
-21.03
-28.80
-34.07
-36.23
-35.54
-32.33
-27.59
-22.22
-17.03
-12.42
-8.38
-5.19
-3.42
-4.31
-8.69
-16.51
-26.27
-35.09
-39.98
-38.49
-30.39
-17.32
-2.72
9.61
16.53
16.78
11.38
2.68
-6.17
-13.06
-16.97
-18.00
-16.99
-14.31
-10.35
-5.31
-0.27
3.41
4.41
2.58
-0.74
-3.46
-3.63
-1.01
3.20
6.82
8.25
7.16
4.43
1.79
0.33
0.88
3.26
7.06
11.69
16.11
19.31
20.14
18.45
14.83
10.99
8.67
8.78
11.11
13.85
15.27
13.87
9.99
5.06
1.22
0.20
2.18
6.03
9.60
11.40
10.80
8.55
5.93
3.89
2.77
1.85
0.74
-0.94
-2.74
-4.19
-5.27
-6.13
-7.59
-9.79
-12.65
-15.23
-16.67
-16.53
-14.98
-12.86
-10.54
-8.48
-6.25
-3.89
-1.82
-1.12
-3.12
-8.08
-14.92
-20.76
-22.68
-18.53
-8.84
3.61
15.07
22.35
24.87
23.84
21.90
20.72
20.62
20.50
18.75
14.96
9.41
3.59
-1.56
-5.53
-8.56
-10.93
-12.40
-12.55
-10.40
-5.99
0.08
6.20
10.49
11.85
10.22
7.06
4.13
3.07
3.82
4.96
4.31
0.16
-7.06
-15.24
-20.92
-21.65
-16.48
-6.78
5.16
17.25
27.62
35.48
39.69
39.51
34.41
24.82
12.40
-0.55
-11.49
-19.00
-22.43
-22.30
-19.59
-15.40
-10.97
-7.09
-4.30
-2.08
0.26
3.49
7.45
10.96
12.39
10.20
4.14
-5.04
-15.36
-24.75
-31.42
-34.31
-33.25
-28.26
-20.21
-10.22
-0.38
6.72
8.70
4.38
-4.96
-16.11
-24.64
-27.39
-23.86
-16.67
-10.04
-7.10
-8.27
-10.76
-10.95
-6.47
1.88
10.82
16.75
17.92
15.52
12.38
11.19
12.46
14.65
15.22
12.40
6.55
-0.54
-6.35
-9.43
-9.60
-7.74
-5.14
-2.60
-0.42
1.55
3.04
3.83
3.66
2.77
1.68
0.82
0.43
0.21
0.04
-0.01
0.58
2.27
4.64
6.64
6.87
4.83
1.16
-2.39
-4.20
-3.63
-1.38
0.90
2.30
2.84
3.58
5.44
8.38
11.33
12.50
10.82
6.21
0.25
-4.92
-7.43
-6.39
-2.40
2.74
6.68
7.99
6.39
3.31
0.94
0.93
3.71
7.69
10.64
10.74
7.92
3.56
-0.30
-2.26
-2.29
-1.20
-0.32
-0.07
-0.08
0.45
1.95
3.97
5.58
5.58
3.95
1.54
0.00
0.76
3.95
8.33
11.61
11.73
7.61
0.42
-7.36
-12.61
-13.06
-8.60
-0.84
6.87
11.44
11.12
6.61
0.62
-3.76
-4.39
-1.61
2.81
6.37
7.84
7.58
6.92
6.95
7.31
6.78
3.74
-2.11
-9.31
-15.39
-18.16
-17.02
-12.96
-8.25
-4.63
-3.16
-3.69
-5.25
-6.90
-7.75
-7.57
-6.29
-4.56
-3.08
-2.49
-3.03
-4.06
-4.59
-3.34
-0.19
4.16
7.83
9.14
7.54
3.93
0.55
-0.82
0.66
3.95
6.90
7.66
5.35
0.77
-4.70
-9.33
-12.35
-13.53
-13.17
-11.69
-8.92
-5.10
-0.62
3.02
4.21
1.63
-4.63
-12.61
-19.45
-22.24
-19.94
-13.18
-4.39
3.91
9.83
12.56
12.28
9.30
4.28
-2.03
-8.04
-11.56
-10.87
-5.39
3.22
12.21
18.55
20.80
19.42
16.18
12.94
10.44
8.73
7.29
6.51
7.24
10.24
15.08
19.58
21.22
18.18
11.13
2.58
-4.34
-7.87
-8.35
-7.50
-7.26
-8.07
-9.39
-10.03
-9.74
-9.43
-10.10
-12.16
-14.49
-15.49
-13.85
-9.90
-5.29
-1.94
-1.08
-2.47
-5.18
-7.81
-9.57
-9.89
-8.50
-5.28
-0.44
4.65
8.39
8.86
5.57
-0.29
-6.27
-9.74
-9.48
-6.15
-2.15
0.52
1.00
0.30
0.50
2.79
7.13
11.71
14.47
14.14
11.09
6.80
2.95
0.80
0.23
0.51
0.68
0.67
1.07
2.79
6.36
11.18
16.02
18.62
17.13
10.70
0.45
-10.73
-19.41
-22.68
-19.84
-12.35
-3.35
4.53
10.19
14.15
17.77
21.26
23.59
22.32
15.75
4.82
-6.59
-13.07
-11.03
-0.41
14.56
27.43
32.92
29.65
20.63
10.90
4.53
1.70
-0.72
-7.22
-20.24
-37.48
-52.41
-57.05
-46.71
-22.35
8.81
36.36
51.19
49.36
33.46
10.40
-11.93
-28.78
-39.32
-45.99
-51.86
-57.52
-60.65
-56.67
-42.05
-16.36
16.42
48.61
71.70
79.54
70.96
49.61
22.63
-2.83
-21.69
-32.23
-35.36
-32.39
-24.29
-11.02
6.41
25.39
41.51
49.80
47.09
33.58
13.30
-7.62
-22.51
-27.20
-20.94
-6.83
9.02
20.36
22.96
16.83
5.71
-4.49
-8.97
-6.96
-1.62
2.00
0.74
-4.88
-10.78
-12.69
-8.94
-2.14
2.62
1.72
-4.76
-12.12
-14.51
-8.58
3.86
16.18
20.77
13.33
-4.34
-25.68
-42.21
-47.98
-41.75
-27.07
-10.19
3.24
10.19
11.37
9.67
8.59
10.30
14.18
17.71
17.98
14.00
7.31
1.58
0.20
4.09
10.67
14.96
12.97
4.01
-8.26
-17.89
-19.90
-12.91
-0.41
11.44
16.93
13.81
4.23
-6.52
-13.03
-12.61
-6.56
0.74
5.02
4.55
1.37
-0.43
2.26
9.59
17.85
22.27
20.00
12.33
3.73
-1.12
-0.30
3.98
7.29
5.56
-1.80
-11.63
-18.73
-18.68
-10.39
3.52
17.27
24.65
21.88
9.45
-7.74
-22.60
-28.88
-24.39
-11.68
2.76
12.36
13.96
8.99
2.38
-1.26
-0.03
3.79
5.77
2.59
-5.82
-15.73
-21.99
-20.68
-11.58
2.27
15.84
25.12
28.71
27.67
24.37
20.29
15.81
9.89
1.07
-11.18
-25.84
-40.16
-50.87
-55.04
-51.67
-41.45
-27.05
-11.68
2.22
13.26
21.27
25.88
26.35
21.42
10.36
-5.20
-21.20
-32.10
-33.80
-25.29
-9.76
7.25
20.04
25.76
25.12
21.12
16.99
13.73
10.40
5.13
-3.41
-14.24
-24.56
-30.48
-29.28
-20.36
-6.11
9.26
20.70
24.44
19.49
7.65
-6.77
-19.05
-25.44
-24.66
-18.38
-9.79
-2.16
2.80
4.83
5.05
4.63
4.42
4.32
4.06
3.92
4.64
7.58
13.22
20.95
28.71
33.09
31.64
23.75
12.04
0.61
-6.46
-7.56
-3.94
0.65
2.50
-0.09
-6.20
-12.80
-17.09
-17.76
-15.43
-12.28
-10.05
-9.28
-8.78
-7.14
-3.65
0.90
4.71
5.71
3.15
-1.49
-5.35
-5.53
-1.40
4.91
9.65
9.23
2.89
-7.16
-16.42
-20.66
-17.79
-8.98
2.18
11.01
13.89
9.85
0.92
-8.55
-13.82
-12.15
-3.83
7.26
15.86
17.85
12.72
3.59
-4.63
-7.85
-4.94
1.87
8.58
12.12
11.96
10.36
10.46
14.01
20.09
24.81
23.91
15.34
0.71
-14.92
-25.83
-28.31
-22.61
-12.58
-3.32
1.87
2.81
2.26
3.58
8.09
14.46
19.05
18.26
10.90
-1.00
-13.01
-20.70
-21.63
-16.53
-8.69
-2.26
0.14
-1.48
-4.64
-6.18
-4.20
1.07
6.84
9.53
6.93
-0.63
-9.84
-16.37
-16.87
-10.65
-0.43
9.23
14.24
13.09
7.46
1.37
-1.53
0.40
5.43
9.41
8.53
1.54
-9.12
-18.67
-22.29
-17.86
-7.10
5.22
14.04
16.83
14.52
10.78
9.21
11.46
15.68
18.00
15.17
6.57
-4.47
-12.91
-14.61
-9.14
-0.52
4.95
2.61
-7.06
-18.67
-24.12
-18.27
-2.03
17.10
28.67
25.42
7.23
-18.23
-39.76
-48.14
-40.67
-22.22
-1.97
11.60
14.80
9.49
1.38
-4.36
-5.19
-2.77
-0.91
-2.42
-7.42
-12.60
-13.60
-7.47
5.16
20.06
31.37
34.61
29.21
18.31
7.58
1.77
2.44
7.07
10.66
9.24
2.17
-6.92
-12.52
-10.32
-0.06
13.35
22.36
20.92
8.02
-11.22
-27.82
-33.85
-26.46
-9.65
7.87
17.85
16.76
7.41
-3.06
-7.80
-4.12
4.73
12.10
12.29
4.43
-7.31
-16.13
-16.98
-9.68
1.26
9.18
9.54
2.45
-7.40
-13.67
-11.89
-1.89
11.60
21.83
23.56
16.06
3.81
-6.47
-9.15
-3.28
6.90
14.55
14.38
6.23
-4.77
-11.04
-7.71
4.54
18.92
26.64
22.41
7.68
-10.21
-22.33
-22.96
-12.82
2.21
14.53
19.23
16.27
9.78
4.93
4.69
8.57
12.77
13.15
7.73
-2.07
-11.93
-17.39
-15.88
-8.58
0.15
4.75
1.56
-9.13
-23.07
-34.04
-37.21
-31.05
-18.25
-4.17
6.24
10.56
9.92
7.33
5.91
6.80
8.79
9.21
6.30
0.44
-5.53
-8.14
-5.38
2.17
11.38
17.95
18.91
13.81
5.14
-3.45
-8.61
-9.23
-6.46
-3.29
-2.63
-5.63
-11.01
-15.72
-16.72
-12.34
-3.58
6.29
13.55
15.90
14.05
10.74
9.23
10.91
14.43
16.01
12.22
2.51
-9.85
-19.06
-20.24
-12.39
0.77
12.13
15.60
9.30
-2.79
-13.69
-17.05
-11.24
-0.09
8.73
8.33
-3.33
-21.99
-39.27
-47.02
-41.48
-25.16
-5.64
8.85
13.66
10.20
4.07
1.80
6.44
16.04
24.62
26.20
18.80
5.94
-5.22
-8.02
-0.25
14.42
27.90
32.19
23.68
5.61
-14.07
-26.59
-27.34
-18.15
-6.47
-0.86
-5.87
-18.96
-32.09
-36.06
-26.35
-5.78
16.10
28.39
24.74
7.23
-15.22
-31.73
-35.47
-27.26
-14.88
-7.82
-11.44
-23.34
-35.12
-37.51
-26.67
-6.66
11.77
17.50
5.49
-19.76
-46.56
-62.58
-61.21
-44.98
-23.48
-7.02
-0.65
-1.45
-1.35
7.13
25.41
47.72
63.75
64.97
49.61
24.36
0.74
-11.04
-6.92
9.05
27.24
37.76
35.67
23.49
9.29
2.01
6.17
19.82
34.92
41.76
34.19
13.18
-13.32
-34.42
-41.08
-30.95
-9.37
13.60
28.43
31.35
25.78
19.77
20.68
30.60
44.26
51.93
45.12
22.13
-10.31
-40.46
-57.15
-55.71
-39.81
-18.90
-2.45
5.31
6.81
8.78
16.74
31.43
47.35
55.91
50.60
31.08
4.19
-19.89
-32.19
-29.94
-17.46
-3.57
3.43
0.60
-8.50
-15.77
-13.99
-0.70
19.33
36.52
41.70
31.22
9.19
-15.13
-31.95
-36.29
-30.25
-21.53
-18.39
-24.20
-35.59
-43.75
-40.01
-20.85
9.06
39.01
57.69
59.03
45.55
25.97
10.69
5.40
8.37
11.77
6.97
-9.31
-32.52
-52.08
-57.45
-43.98
-16.40
13.41
32.81
34.88
22.12
3.71
-10.01
-13.91
-10.64
-8.45
-15.01
-31.44
-50.92
-61.58
-53.78
-25.65
14.39
51.17
70.14
64.45
38.20
3.72
-24.35
-36.38
-31.51
-16.79
-2.12
6.00
7.40
7.45
12.53
25.47
42.83
56.47
58.27
45.03
21.09
-3.95
-19.72
-20.50
-8.24
8.47
19.32
18.22
6.29
-8.88
-18.40
-17.12
-7.09
3.64
6.13
-3.90
-23.21
-43.03
-53.55
-49.51
-33.14
-12.93
0.95
2.47
-7.32
-20.96
-29.28
-26.46
-13.80
0.95
8.34
2.95
-12.76
-30.05
-38.71
-32.98
-15.19
5.44
18.40
18.18
7.29
-5.43
-10.39
-2.62
15.27
34.52
45.51
43.15
30.17
15.03
7.46
12.73
28.34
45.22
52.88
45.54
25.88
3.43
-10.62
-9.53
4.97
23.48
34.41
30.48
13.34
-7.80
-21.26
-19.52
-3.79
16.35
28.55
24.86
6.73
-15.64
-28.91
-24.45
-3.59
22.31
38.26
34.18
11.07
-19.78
-43.06
-47.99
-34.12
-11.06
7.90
13.72
6.59
-5.66
-13.19
-10.85
-1.13
7.47
6.34
-7.55
-29.33
-49.10
-57.40
-50.36
-31.52
-9.79
5.90
11.35
8.99
5.70
8.19
18.49
32.79
42.94
41.41
25.85
1.08
-23.24
-37.35
-36.54
-23.20
-5.77
6.24
7.39
-0.93
-11.81
-17.19
-12.88
-0.68
12.43
19.03
15.84
5.80
-4.05
-7.07
-1.05
10.44
19.88
20.82
11.76
-2.76
-14.72
-17.33
-9.13
5.26
17.03
18.40
6.89
-12.95
-31.99
-41.05
-36.07
-19.81
-0.81
11.58
12.26
2.98
-9.17
-15.87
-12.69
-1.39
10.74
15.45
8.60
-7.18
-23.87
-32.69
-28.84
-14.20
3.40
15.00
15.54
6.77
-4.05
-8.52
-2.25
12.76
28.67
36.67
32.16
17.06
-1.45
-15.31
-20.02
-16.57
-10.42
-7.29
-9.57
-14.57
-17.01
-12.17
0.19
15.47
25.70
24.07
9.04
-14.37
-36.67
-48.95
-47.21
-34.44
-18.91
-9.09
-8.95
-15.65
-22.00
-20.83
-10.08
6.29
19.86
22.93
13.28
-4.78
-22.38
-31.40
-28.64
-17.29
-5.13
0.35
-3.84
-14.14
-22.91
-22.61
-10.60
9.44
29.00
39.41
36.69
23.44
7.49
-2.68
-1.72
9.98
26.48
39.62
42.93
34.94
19.33
3.23
-6.85
-7.84
-1.70
6.22
10.94
10.54
7.51
6.45
11.12
21.42
32.53
37.52
31.33
14.57
-6.49
-22.43
-26.04
-16.01
2.01
18.20
24.19
17.61
3.61
-8.62
-10.87
-0.67
16.99
32.67
37.96
30.45
14.47
-1.46
-9.67
-7.29
2.57
13.01
17.62
13.99
5.06
-3.45
-5.93
-0.66
8.64
14.73
10.62
-5.79
-29.96
-52.16
-62.57
-56.43
-36.94
-13.73
2.65
6.54
0.01
-9.38
-13.45
-8.56
2.29
11.57
12.41
3.22
-11.66
-24.59
-29.01
-23.06
-10.38
2.11
8.14
5.55
-2.47
-9.52
-9.42
0.10
15.49
28.92
32.53
23.09
4.18
-15.25
-25.40
-20.90
-3.91
17.12
32.21
35.59
28.39
17.33
9.96
10.01
14.98
17.63
11.03
-6.66
-30.47
-50.92
-58.86
-50.48
-29.41
-4.98
12.73
18.26
12.95
3.64
-1.93
0.49
9.12
17.44
18.64
10.03
-5.12
-19.55
-25.97
-21.23
-7.89
7.55
18.56
22.47
21.54
21.17
25.92
36.50
48.60
54.87
49.29
30.96
5.49
-17.79
-30.00
-27.46
-13.74
2.33
11.46
9.15
-2.06
-14.14
-19.16
-13.45
-0.35
12.06
16.48
10.74
-0.61
-9.35
-8.78
1.95
17.37
28.97
30.33
21.00
6.36
-5.82
-10.18
-6.43
1.02
6.35
5.62
-1.47
-11.93
-22.22
-29.64
-33.44
-34.23
-32.94
-30.48
-27.31
-23.79
-19.84
-15.68
-11.26
-6.60
-2.50
0.15
0.25
-2.33
-6.34
-9.42
-9.47
-5.62
1.12
8.35
13.82
16.23
16.25
15.61
15.91
17.27
18.14
16.40
10.55
1.55
-7.90
-14.36
-15.49
-11.02
-2.30
8.09
18.02
25.48
29.22
28.25
21.80
10.50
-4.00
-18.25
-28.85
-33.41
-32.10
-27.09
-21.61
-18.17
-17.51
-18.86
-20.29
-20.48
-19.05
-17.07
-15.94
-16.27
-17.47
-17.56
-14.85
-8.44
0.40
9.33
15.75
18.17
17.08
14.25
12.27
12.42
14.47
16.48
16.01
11.83
4.56
-3.05
-7.85
-7.16
-0.92
8.63
17.99
23.69
24.34
20.43
13.98
7.17
1.28
-3.66
-8.31
-13.24
-18.44
-23.04
-25.79
-25.60
-22.26
-16.28
-9.16
-2.67
1.60
2.40
-0.46
-6.61
-14.97
-24.26
-33.30
-41.06
-46.67
-49.22
-48.35
-44.13
-37.53
-30.32
-23.74
-18.86
-15.62
-13.20
-10.56
-6.73
-1.32
5.26
11.66
16.24
17.43
14.76
9.18
2.72
-2.24
-4.05
-2.60
0.82
4.65
7.64
9.87
12.07
14.36
16.13
15.99
12.92
7.20
0.81
-3.40
-2.68
4.61
18.13
36.45
57.30
78.48
98.66
117.27
134.32
149.79
162.97
171.48
171.48
158.37
129.03
84.37
30.76
-20.52
-56.32
-66.13
-46.46
-2.59
52.55
102.47
132.74
134.89
108.77
61.32
3.81
-52.08
-97.41
-127.29
-141.27
-141.41
-131.22
-113.90
-92.29
-69.17
-47.48
-30.48
-20.51
-18.62
-23.50
-32.23
-41.12
-46.83
-47.49
-42.53
-32.99
-20.77
-8.76
0.04
2.80
-1.94
-13.14
-27.45
-39.59
-44.82
-40.57
-28.15
-11.56
3.99
14.51
19.08
18.90
16.83
14.79
13.12
10.71
6.43
0.45
-5.76
-9.54
-9.10
-3.76
5.63
17.00
27.78
34.82
35.06
26.01
7.29
-18.83
-47.54
-73.11
-91.16
-99.95
-101.06
-97.76
-93.62
-90.69
-89.41
-88.38
-85.31
-77.69
-63.21
-41.22
-12.74
18.95
49.11
72.91
86.82
89.95
83.73
71.68
57.70
44.86
34.61
26.71
20.19
14.44
10.01
8.24
10.42
16.43
24.40
31.58
35.58
35.87
33.63
30.93
29.11
28.12
26.57
22.87
16.43
7.83
-1.00
-8.17
-12.56
-14.33
-14.75
-15.15
-16.22
-17.19
-16.48
-12.48
-4.63
5.81
16.35
24.03
26.95
24.73
18.48
9.92
0.69
-7.94
-15.17
-20.18
-22.31
-21.21
-17.28
-11.75
-6.30
-2.43
-0.66
-0.86
-2.24
-4.16
-6.29
-8.45
-10.37
-11.31
-10.53
-7.54
-2.69
2.88
7.77
10.73
11.52
10.52
8.75
6.94
5.54
4.64
4.16
4.52
6.13
9.49
14.35
19.62
23.60
24.60
21.95
16.22
9.44
3.81
1.39
2.39
5.71
9.22
10.81
9.84
6.93
3.92
2.08
1.61
1.14
-1.08
-5.95
-13.01
-20.05
-24.83
-25.75
-23.26
-18.87
-14.53
-11.64
-10.45
-10.93
-12.76
-16.03
-20.81
-27.16
-34.55
-42.12
-49.05
-54.51
-57.98
-58.75
-56.51
-51.32
-44.04
-36.32
-29.89
-26.29
-25.76
-27.65
-30.49
-33.01
-34.64
-35.50
-36.44
-37.97
-40.33
-42.93
-44.96
-45.31
-42.65
-35.18
-20.69
2.43
34.10
71.38
108.84
140.04
160.17
168.32
168.13
165.67
166.79
174.18
185.99
196.63
199.98
190.69
165.42
123.16
65.62
-2.46
-72.63
-134.13
-177.46
-198.16
-199.27
-189.85
-180.62
-178.78
-184.75
-192.78
-194.79
-184.80
-161.47
-127.74
-88.17
-46.35
-4.02
38.08
78.56
114.64
142.80
160.13
165.80
161.49
150.90
138.16
126.41
116.93
109.06
101.00
91.02
78.37
63.68
48.67
35.31
25.01
18.04
13.61
10.30
6.76
2.24
-3.20
-8.82
-13.72
-17.20
-19.13
-19.85
-20.01
-20.24
-20.89
-21.98
-23.23
-24.31
-24.96
-25.10
-24.83
-24.33
-23.76
-23.22
-22.72
-22.23
-21.70
-21.11
-20.43
-19.69
-18.91
-18.09
-17.24
-16.37
-15.50
-14.63
-13.78
-12.96
-12.09
-11.23
-10.41
-9.64
-8.93
-8.26
-7.65
-7.08
-6.56
-6.09
-5.66
-5.28
-4.93
-4.61
-4.32
-4.04
-3.79
-3.55
-3.34
-3.14
-2.97
-2.81
-2.66
-2.53
-2.39
-2.27
-2.16
-2.05
-1.96
-1.88
-1.79
-1.72
-1.66
-1.59
-1.53
-1.47
-1.41
-1.36
-1.31
-1.27
-1.23
-1.19
-1.15
-1.12
-1.08
-1.05
-1.02
-0.99
-0.96
-0.94
-0.91
-0.89
-0.87
-0.84
-0.82
-0.80
-0.78
-0.76
-0.74
-0.72
-0.71
-0.68
-0.68
-0.65
-0.64
-0.63
-0.61
-0.60
-0.58
-0.57
-0.56
-0.54
-0.53
-0.52
-0.51
-0.50
-0.49
-0.48
-0.46
-0.46
-0.44
-0.44
-0.43
-0.42
-0.41
-0.40
-0.40
-0.38
-0.38
-0.36
-0.35
-0.33
-0.31
-0.28
-0.24
-0.19
-0.13
-0.07
-0.00
0.07
0.15
0.24
0.36
0.48
0.62
0.73
0.79
0.79
0.72
0.64
0.58
0.62
0.73
0.91
1.13
1.31
1.43
1.49
1.53
1.65
1.88
2.27
2.76
3.27
3.71
3.99
4.15
4.29
4.58
5.17
6.10
7.25
8.40
9.28
9.72
9.75
9.66
9.87
10.71
12.30
14.41
16.50
17.98
18.49
18.12
17.42
17.20
18.10
20.30
23.30
26.08
27.45
26.58
23.38
18.49
12.95
7.53
2.43
-2.84
-9.22
-17.56
-28.34
-41.68
-57.38
-74.76
-91.71
-105.31
-111.55
-106.89
-90.32
-64.39
-34.75
-8.03
10.79
20.25
22.32
20.66
18.43
16.96
15.90
14.32
11.97
9.60
8.48
9.23
11.54
14.17
15.80
15.49
13.34
10.34
7.73
6.51
6.94
8.52
10.30
11.30
11.02
9.62
7.78
6.31
5.76
6.16
7.13
8.03
8.41
8.17
7.60
7.24
7.46
8.33
9.53
10.57
11.03
10.88
10.53
10.58
11.57
13.61
16.27
18.79
20.40
20.78
20.27
19.76
20.32
22.63
26.60
31.38
35.68
38.52
39.50
39.14
38.48
38.62
40.33
44.06
50.09
58.23
67.25
74.48
75.98
68.01
48.91
20.54
-11.91
-41.78
-63.58
-75.11
-77.70
-74.86
-70.17
-65.80
-62.30
-59.50
-57.40
-56.45
-57.12
-59.21
-61.66
-63.17
-62.97
-61.22
-59.24
-58.64
-60.45
-64.41
-69.21
-72.94
-73.93
-71.75
-67.26
-62.47
-59.89
-61.70
-68.67
-79.37
-89.85
-94.58
-88.55
-69.70
-40.60
-7.78
20.48
37.93
42.66
37.58
28.82
22.71
23.40
31.62
44.82
58.26
67.18
68.16
60.49
46.86
32.23
22.14
20.00
25.46
34.89
43.13
45.72
40.34
27.20
8.15
-13.78
-34.78
-50.98
-59.30
-58.60
-49.94
-37.40
-24.83
-14.60
-6.74
0.53
9.05
19.67
32.09
45.31
58.38
70.95
82.57
92.33
98.49
99.07
92.86
79.94
62.06
42.06
23.24
7.91
-3.02
-10.01
-14.51
-18.08
-21.83
-26.00
-30.12
-33.19
-34.57
-33.98
-31.57
-27.71
-22.60
-16.19
-8.32
1.08
11.91
23.09
32.94
39.62
41.69
38.52
30.41
18.38
2.88
-14.18
-31.52
-48.44
-64.39
-78.57
-89.61
-95.69
-95.31
-88.23
-74.53
-55.84
-34.56
-13.09
7.09
25.65
43.27
61.01
80.16
101.85
126.42
152.87
178.47
198.69
207.69
200.47
174.44
130.95
75.83
18.25
-31.51
-64.81
-76.78
-67.59
-39.99
-0.02
44.80
87.17
120.74
140.39
142.16
123.98
86.44
34.69
-21.92
-71.98
-105.69
-118.16
-110.69
-89.75
-61.65
-34.49
-14.49
-4.35
-3.16
-8.37
-17.67
-28.89
-39.78
-47.50
-49.51
-43.76
-29.89
-10.59
7.91
16.56
6.77
-25.47
-76.08
-132.93
-179.27
-200.55
-191.02
-156.03
-109.07
-64.91
-33.24
-15.83
-8.57
-5.64
-3.51
-2.38
-4.48
-11.33
-21.92
-33.10
-41.23
-44.52
-43.76
-41.75
-41.92
-46.52
-55.79
-67.99
-80.38
-90.54
-97.28
-100.88
-102.66
-103.93
-105.29
-106.25
-105.54
-101.70
-94.26
-82.72
-67.15
-48.29
-27.17
-4.98
17.02
37.36
54.63
67.68
76.22
80.95
83.32
85.20
88.12
92.63
98.07
103.22
106.85
108.87
110.75
114.82
123.70
139.48
162.98
193.26
227.16
259.02
279.92
282.94
264.85
227.81
178.85
126.70
78.02
35.48
-1.48
-33.54
-60.09
-78.49
-86.22
-83.13
-72.06
-57.37
-42.93
-31.26
-24.41
-25.35
-38.09
-65.19
-105.08
-150.30
-189.63
-212.66
-214.48
-197.45
-168.90
-136.18
-102.65
-67.72
-29.35
12.01
51.21
79.20
87.10
70.91
35.74
-4.41
-31.32
-29.47
7.57
74.74
157.41
236.97
296.27
326.21
327.84
310.16
284.75
259.91
238.39
218.43
198.89
178.55
157.93
137.03
113.62
83.67
43.19
-8.70
-67.78
-125.97
-174.93
-208.74
-226.39
-230.98
-227.05
-218.94
-208.53
-194.99
-175.91
-149.25
-114.19
-73.51
-33.64
-3.65
6.12
-11.20
-55.08
-116.41
-180.20
-230.71
-258.34
-262.41
-246.46
-219.48
-190.37
-163.57
-137.86
-111.65
-77.69
-33.58
15.27
61.78
97.82
117.02
116.31
96.32
61.73
20.24
-19.73
-49.95
-63.71
-57.99
-33.39
6.86
57.58
112.31
163.52
202.56
221.99
218.34
193.59
155.40
114.78
81.49
60.35
50.36
45.90
40.90
31.92
18.37
1.19
-19.40
-44.69
-76.09
-112.72
-149.86
-179.18
-191.14
-178.82
-141.41
-85.54
-23.85
29.20
62.97
74.06
67.16
51.80
37.49
29.59
28.39
31.07
34.72
38.88
45.02
54.63
66.80
77.05
79.02
67.59
41.98
7.05
-28.01
-53.40
-62.90
-57.07
-43.52
-34.32
-40.58
-67.46
-111.57
-161.40
-201.86
-219.38
-206.50
-163.90
-99.45
-25.89
42.60
93.53
119.06
117.73
94.56
59.06
21.88
-7.69
-23.64
-23.07
-6.09
24.29
61.53
95.60
115.00
111.00
82.44
37.37
-9.30
-42.52
-53.93
-45.20
-25.81
-6.98
4.14
7.26
6.22
5.00
4.48
2.47
-3.63
-13.95
-24.92
-31.23
-28.94
-18.18
-3.00
10.68
18.19
18.45
13.74
8.49
6.14
7.68
11.40
13.99
12.65
6.41
-3.31
-13.61
-20.83
-22.26
-16.75
-4.89
11.15
28.66
44.75
57.64
66.58
72.02
74.92
76.19
76.44
75.59
73.38
69.25
62.94
54.26
43.71
32.62
22.57
14.86
9.07
3.20
-5.70
-19.66
-38.49
-59.60
-78.82
-92.47
-98.20
-95.59
-85.53
-69.68
-50.31
-30.37
-13.40
-2.36
1.15
-1.84
-8.36
-14.33
-16.33
-13.10
-5.59
3.01
8.98
9.14
2.08
-11.40
-29.07
-47.62
-64.08
-75.98
-81.47
-79.51
-70.12
-55.23
-38.91
-26.50
-22.40
-28.19
-41.17
-55.35
-64.22
-62.73
-49.19
-24.69
7.71
44.43
81.59
115.28
141.59
157.36
161.38
154.57
140.22
122.12
103.46
85.98
69.81
54.96
41.61
30.71
22.79
17.17
11.74
3.74
-8.23
-23.17
-37.67
-47.94
-51.57
-48.88
-41.84
-32.59
-22.42
-11.38
-0.00
9.97
15.22
12.52
0.80
-17.91
-39.08
-58.25
-72.65
-82.49
-89.82
-96.82
-104.24
-110.81
-114.18
-112.12
-104.03
-90.96
-75.36
-59.68
-45.30
-32.20
-19.24
-5.42
9.73
25.77
42.03
58.21
74.96
93.72
115.59
140.44
165.79
186.96
198.38
195.45
176.78
145.04
106.76
69.82
40.85
22.82
14.38
11.21
8.03
1.02
-11.51
-29.14
-50.75
-75.12
-100.93
-125.98
-146.55
-158.23
-157.27
-142.99
-118.73
-91.08
-67.24
-51.86
-45.24
-43.22
-39.96
-30.46
-12.52
13.30
45.15
80.84
117.99
152.98
181.01
196.79
197.14
182.73
157.91
128.83
99.99
73.06
47.20
21.61
-2.73
-22.81
-35.39
-39.50
-37.09
-32.42
-29.46
-30.45
-35.27
-42.54
-50.75
-58.93
-66.95
-74.58
-81.43
-86.80
-89.91
-90.11
-86.87
-79.95
-69.44
-56.48
-42.97
-31.82
-25.79
-26.47
-33.37
-43.69
-53.61
-59.63
-60.04
-54.97
-45.75
-33.82
-19.69
-3.83
12.63
27.29
37.34
41.35
40.70
39.29
41.47
49.89
63.45
77.89
87.82
89.32
81.92
68.85
55.80
48.62
51.51
65.10
86.42
109.51
127.05
132.62
122.70
97.99
62.64
23.18
-14.02
-44.26
-64.86
-75.58
-77.56
-72.79
-63.71
-53.10
-43.85
-38.22
-37.28
-39.99
-44.12
-46.92
-46.69
-43.74
-40.16
-38.74
-41.31
-48.25
-57.94
-67.89
-75.25
-77.95
-75.22
-67.51
-56.56
-44.70
-34.37
-27.06
-23.50
-23.06
-24.12
-24.71
-22.64
-16.38
-5.40
9.17
25.35
40.60
53.04
61.86
67.21
69.67
69.38
65.90
58.74
47.96
34.74
20.56
6.98
-5.67
-17.30
-27.72
-35.26
-37.31
-31.34
-16.70
4.03
25.60
41.73
47.68
41.86
26.23
5.13
-16.40
-33.68
-43.28
-43.03
-32.74
-14.31
8.02
28.71
42.79
47.63
44.05
35.77
27.77
24.24
26.75
34.07
42.09
45.54
39.07
19.66
-12.29
-52.04
-91.65
-122.05
-135.92
-129.95
-105.44
-67.54
-23.43
19.38
54.41
77.05
84.92
78.37
60.25
35.51
9.97
-11.12
-24.19
-28.08
-23.65
-13.44
-0.73
11.19
19.78
23.98
24.20
22.36
20.60
20.79
23.24
26.71
28.89
27.25
20.36
8.34
-6.97
-22.71
-35.81
-43.87
-45.62
-40.95
-31.14
-18.38
-5.53
4.72
10.48
11.20
7.83
2.20
-3.49
-7.51
-8.73
-6.87
-2.16
4.88
13.28
22.00
29.65
35.19
37.75
37.06
33.25
26.64
18.01
8.31
-0.93
-8.28
-12.62
-13.85
-12.90
-11.36
-10.89
-12.30
-15.63
-20.10
-24.84
-29.24
-32.88
-35.43
-36.19
-34.47
-29.60
-21.64
-11.43
-0.46
9.62
17.73
23.36
26.92
28.82
29.48
29.00
27.55
25.66
24.18
24.31
26.83
32.01
38.94
46.08
51.63
54.14
53.12
48.80
42.13
33.95
24.99
15.53
5.63
-4.55
-14.69
-23.78
-30.68
-34.25
-34.11
-31.11
-27.17
-24.94
-26.34
-31.94
-39.86
-46.92
-49.86
-47.21
-40.31
-32.64
-28.45
-30.51
-39.23
-52.22
-65.54
-74.75
-75.70
-65.20
-41.66
-6.34
36.06
77.34
107.85
119.68
109.52
80.36
39.96
-1.84
-36.72
-60.00
-71.01
-71.98
-65.88
-55.42
-41.76
-25.39
-6.41
14.56
35.97
55.94
72.83
86.40
97.40
107.19
115.81
121.59
121.58
113.01
95.43
71.35
45.52
22.82
6.31
-3.71
-8.93
-11.24
-11.82
-10.74
-8.35
-6.25
-7.62
-15.93
-33.34
-59.29
-89.87
-119.14
-140.50
-148.97
-143.12
-125.43
-101.31
-76.52
-54.56
-35.06
-15.18
7.78
33.13
55.79
68.42
65.34
46.35
17.59
-11.14
-30.94
-37.68
-32.98
-21.17
-6.51
9.42
27.84
51.46
82.16
119.19
158.92
195.75
223.49
237.78
238.49
227.35
207.02
179.83
147.60
111.97
75.13
39.30
6.05
-24.86
-57.28
-95.68
-143.77
-200.69
-259.85
-310.53
-342.88
-351.98
-339.11
-311.38
-277.16
-241.77
-205.34
-164.40
-113.38
-52.16
10.04
63.10
99.35
115.37
113.72
101.81
88.38
79.62
76.42
75.49
72.58
64.57
51.21
34.79
18.34
3.54
-10.11
-24.78
-42.36
-62.40
-82.63
-99.44
-109.45
-110.94
-104.47
-92.53
-78.76
-66.33
-56.58
-49.39
-43.42
-36.94
-28.68
-18.31
-5.24
10.38
28.19
47.98
69.43
92.08
115.25
137.81
158.09
174.58
185.99
191.52
191.23
185.79
176.30
163.80
150.70
136.91
122.36
107.54
93.55
82.15
75.30
74.20
79.47
90.25
104.13
118.38
130.57
138.76
143.03
143.59
140.88
134.37
122.94
105.23
80.89
51.13
18.39
-13.51
-40.81
-60.73
-73.52
-82.08
-91.32
-106.89
-130.53
-164.71
-211.18
-270.40
-333.43
-388.71
-423.03
-426.08
-394.88
-335.38
-260.34
-183.78
-116.05
-61.27
-18.99
13.88
40.10
60.69
75.57
84.57
88.93
91.07
93.63
97.37
101.32
103.48
101.77
95.47
85.42
73.94
63.84
57.35
54.92
55.55
57.27
58.09
56.87
53.60
49.30
45.40
43.08
42.63
43.62
45.05
45.91
45.65
44.29
42.35
40.54
39.45
39.24
39.74
40.50
41.04
41.07
40.55
39.61
38.46
37.26
36.05
34.81
33.42
31.69
29.50
26.80
23.50
19.54
14.87
8.87
1.51
-7.22
-17.31
-28.77
-41.58
-55.77
-71.40
-88.52
-107.24
-127.68
-150.05
-174.53
-201.20
-230.14
-261.32
-294.64
-329.74
-366.08
-402.65
-438.13
-470.62
-497.81
-516.78
-524.44
-518.39
-496.47
-457.37
-400.97
-328.93
-244.35
-151.76
-56.04
37.77
125.05
202.41
267.50
319.40
358.20
385.20
402.20
411.30
414.78
414.34
411.37
406.49
399.96
391.37
380.00
365.24
346.14
321.95
292.08
256.54
215.22
168.69
117.55
63.31
7.46
-48.18
-101.52
-150.76
-193.91
-229.75
-257.53
-277.00
-288.60
-293.13
-292.05
-286.70
-278.92
-269.97
-260.84
-252.35
-244.55
-237.39
-230.25
-222.71
-214.02
-203.59
-191.29
-176.95
-160.65
-142.55
-123.06
-102.23
-80.23
-57.11
-32.92
-7.85
17.78
43.23
67.71
89.85
108.18
121.17
127.65
126.80
118.24
102.60
80.98
55.60
28.79
3.15
-18.67
-34.60
-43.08
-43.66
-36.30
-22.15
-2.91
19.28
42.24
63.94
82.42
96.46
105.16
108.11
105.46
97.70
85.78
70.59
53.27
34.44
14.83
-5.40
-26.29
-48.13
-71.31
-95.79
-121.29
-146.68
-170.57
-191.10
-206.60
-215.45
-216.43
-208.98
-192.56
-167.72
-135.24
-96.70
-54.08
-9.82
33.91
75.60
113.64
146.28
171.25
186.36
190.20
183.21
168.47
150.33
133.57
121.03
113.55
110.33
109.75
110.84
112.96
115.73
118.25
119.79
119.78
119.02
118.75
120.55
125.99
135.92
151.16
171.59
196.52
223.64
249.99
272.43
288.50
298.22
302.82
304.36
304.88
306.37
310.54
319.16
332.99
349.35
361.71
359.80
334.16
281.04
205.33
120.12
41.41
-18.36
-54.84
-70.32
-72.13
-67.06
-59.93
-54.24
-53.16
-60.30
-77.27
-102.21
-127.84
-145.27
-147.11
-130.86
-99.42
-57.08
-7.08
50.01
113.52
180.17
241.41
285.44
301.82
285.23
238.93
172.04
96.05
19.77
-52.87
-121.99
-188.51
-250.49
-303.14
-338.91
-352.18
-340.97
-307.98
-260.11
-206.07
-156.16
-119.18
-102.12
-106.68
-129.00
-160.02
-188.02
-203.42
-201.13
-182.32
-151.81
-116.14
-80.62
-48.90
-23.80
-5.76
6.63
18.20
35.90
65.67
108.65
159.76
209.11
245.76
263.26
260.63
242.91
216.74
186.99
155.10
118.91
75.30
21.39
-42.69
-114.50
-188.74
-257.57
-312.58
-345.57
-351.91
-331.29
-288.91
-233.59
-175.84
-124.09
-81.63
-47.36
-16.14
16.10
49.34
78.70
96.45
96.51
78.36
48.37
16.35
-8.13
-20.25
-19.37
-7.14
14.32
44.01
79.89
117.74
150.50
170.87
174.27
159.74
129.99
88.67
41.34
-5.26
-42.24
-61.12
-57.16
-32.27
4.14
39.95
65.38
78.32
84.01
91.62
108.28
135.17
167.97
198.21
218.09
222.37
210.13
183.77
147.85
108.52
71.11
40.06
16.42
-1.59
-17.52
-35.01
-54.82
-74.37
-88.32
-92.83
-86.93
-74.20
-60.74
-51.73
-49.40
-51.50
-54.12
-53.90
-50.87
-48.37
-51.20
-61.75
-78.19
-95.83
-108.13
-110.86
-102.74
-85.33
-60.96
-30.92
4.05
43.06
81.57
112.35
126.69
118.41
87.75
40.89
-12.30
-62.92
-104.61
-134.93
-153.22
-159.82
-157.14
-149.22
-142.23
-140.44
-144.36
-148.90
-146.18
-130.28
-101.56
-67.77
-40.43
-30.42
-41.83
-70.94
-107.46
-138.75
-154.28
-147.90
-119.62
-73.52
-17.30
40.64
92.63
132.76
159.04
172.54
177.34
177.63
177.20
177.91
180.02
182.21
181.72
176.71
165.77
149.28
129.05
107.54
87.72
71.92
61.78
56.89
55.81
55.16
51.24
40.53
20.40
-10.33
-51.53
-99.59
-148.34
-189.23
-214.18
-217.77
-199.20
-164.31
-122.67
-85.09
-58.37
-44.14
-38.72
-35.76
-29.61
-16.91
2.04
24.68
47.32
67.34
84.11
98.93
114.11
130.56
147.89
162.68
170.95
169.42
157.55
138.38
117.20
99.96
90.00
88.65
94.39
104.77
116.03
123.00
119.77
99.86
60.43
3.55
-61.98
-123.29
-168.06
-188.54
-185.36
-166.44
-143.61
-126.99
-121.42
-124.49
-129.09
-127.36
-113.42
-86.49
-50.19
-11.98
20.07
39.95
44.09
32.64
7.90
-25.49
-61.97
-94.85
-118.28
-128.86
-127.02
-116.82
-103.22
-90.63
-79.83
-69.15
-54.88
-33.59
-4.88
28.81
62.05
88.40
101.66
97.54
73.92
32.71
-19.27
-71.57
-111.40
-128.45
-117.64
-82.37
-34.70
10.02
38.79
46.93
38.95
26.04
18.92
22.35
33.65
45.25
51.71
52.43
52.08
54.82
61.02
65.02
59.33
40.59
12.08
-16.74
-36.59
-43.63
-42.53
-43.40
-56.06
-84.51
-123.32
-160.41
-181.95
-179.36
-151.81
-105.90
-53.05
-4.35
33.20
58.76
76.30
91.70
108.97
128.13
145.89
156.18
154.83
140.59
116.52
87.55
58.36
31.14
5.72
-17.44
-36.52
-46.98
-45.18
-32.10
-14.68
-3.21
-5.65
-24.22
-53.06
-82.80
-105.55
-119.72
-129.47
-139.32
-150.37
-157.72
-153.16
-129.32
-83.50
-19.20
55.41
129.14
191.19
231.97
246.50
234.71
202.11
157.99
112.15
72.12
40.76
18.16
2.48
-7.09
-10.47
-7.15
2.78
17.66
35.18
51.61
63.43
67.29
60.84
43.54
16.35
-17.08
-51.71
-80.96
-98.02
-98.01
-80.68
-51.21
-18.44
8.06
22.83
25.66
21.50
15.93
11.67
7.33
-0.80
-14.35
-31.75
-47.35
-55.48
-52.36
-37.67
-14.88
10.84
32.78
44.90
42.51
25.24
-1.49
-28.25
-45.06
-47.34
-37.34
-23.59
-15.44
-17.50
-26.70
-33.96
-29.34
-6.68
32.81
81.84
129.72
166.59
185.71
184.08
163.10
126.99
82.67
36.46
-6.21
-41.92
-68.59
-84.52
-89.38
-84.10
-73.01
-61.88
-56.47
-58.80
-64.85
-67.10
-58.49
-38.41
-13.02
6.92
12.63
1.57
-22.83
-53.98
-87.11
-119.32
-148.68
-171.63
-183.88
-182.60
-168.62
-147.73
-126.44
-109.36
-95.24
-79.62
-58.06
-29.88
1.35
31.14
56.52
78.45
99.17
120.13
140.25
156.61
166.94
170.31
167.94
161.34
151.50
138.90
124.66
111.48
102.55
100.59
104.78
111.23
114.25
109.62
97.36
80.70
64.52
50.97
39.45
26.92
12.06
-3.38
-15.23
-19.00
-14.09
-4.36
2.32
-1.10
-17.29
-42.72
-69.01
-87.57
-93.05
-86.64
-73.74
-61.08
-53.06
-50.43
-51.78
-54.96
-59.60
-65.44
-71.53
-74.80
-71.18
-58.90
-39.82
-20.59
-8.14
-7.08
-17.14
-34.76
-55.12
-74.40
-91.01
-103.26
-110.23
-110.92
-105.97
-97.73
-89.59
-85.42
-87.63
-97.32
-112.30
-127.90
-135.18
-123.62
-84.62
-16.23
72.18
162.52
232.72
267.00
261.14
223.03
167.88
110.78
62.87
28.84
10.19
6.21
16.19
38.16
67.83
99.86
128.31
150.19
165.54
177.43
189.37
202.90
216.88
226.76
227.52
214.48
186.57
145.19
94.01
37.26
-21.42
-77.73
-128.04
-168.35
-197.38
-217.28
-233.27
-250.86
-272.01
-294.66
-312.37
-319.60
-313.42
-295.37
-269.82
-240.56
-210.41
-180.38
-152.37
-128.24
-109.35
-94.13
-76.76
-50.62
-10.96
40.68
97.56
149.94
190.91
218.39
234.55
243.14
245.96
243.68
236.22
225.20
213.82
205.73
202.55
201.98
199.76
190.90
173.79
150.11
124.07
100.27
80.96
66.11
52.71
36.69
12.47
-24.20
-74.29
-133.98
-193.56
-240.94
-266.13
-267.18
-250.81
-230.50
-218.49
-219.55
-228.70
-233.83
-224.01
-195.59
-154.41
-112.24
-80.02
-62.22
-55.68
-53.29
-48.08
-36.44
-17.81
7.25
37.64
71.87
105.57
132.26
144.40
137.95
114.31
79.77
44.11
16.01
1.15
0.70
13.09
34.33
59.75
84.46
103.77
115.71
120.98
123.78
128.95
139.30
153.60
166.33
170.63
160.26
133.24
91.49
41.27
-8.15
-47.46
-69.66
-73.53
-63.42
-49.23
-40.54
-43.37
-56.82
-72.77
-81.04
-73.25
-47.44
-7.18
39.05
82.82
116.96
136.08
138.01
121.74
88.69
41.07
-17.72
-83.79
-151.77
-213.83
-260.57
-281.23
-268.83
-222.42
-149.98
-66.24
12.46
73.28
111.00
127.52
130.83
129.25
128.72
130.21
129.53
121.05
100.49
69.68
36.34
12.89
10.19
32.76
75.23
123.22
160.12
173.23
158.88
121.79
70.40
11.64
-51.81
-119.20
-188.46
-252.29
-299.75
-320.32
-309.01
-269.88
-214.83
-159.96
-119.55
-102.56
-109.67
-134.36
-165.35
-189.48
-195.67
-176.96
-133.86
-73.68
-9.11
45.73
78.97
84.50
63.36
22.27
-27.79
-75.37
-111.04
-129.87
-132.45
-122.82
-107.30
-90.78
-75.74
-61.58
-46.35
-28.62
-7.83
14.80
38.97
65.22
95.69
131.06
169.04
203.95
228.12
235.96
226.69
206.63
186.27
176.27
182.79
204.93
235.68
265.01
284.00
286.46
270.95
239.19
196.62
151.09
110.44
81.34
64.92
56.27
45.62
23.45
-14.49
-63.57
-110.57
-140.17
-140.54
-110.03
-56.63
4.67
58.36
93.55
106.94
103.04
90.38
78.60
73.78
76.34
81.35
80.82
67.15
35.75
-12.49
-72.69
-136.11
-193.45
-237.13
-262.22
-268.99
-261.62
-247.18
-232.53
-221.69
-214.63
-208.89
-203.34
-199.23
-200.45
-209.22
-223.37
-235.07
-233.45
-209.76
-161.64
-95.58
-24.03
37.92
78.09
91.20
79.83
53.89
27.51
15.56
27.86
65.98
121.66
178.93
219.96
230.38
205.01
148.10
72.42
-5.15
-68.40
-105.09
-110.21
-85.08
-37.91
19.57
73.59
112.37
129.57
125.53
107.59
85.00
65.87
52.88
44.41
37.20
29.42
23.86
25.32
38.11
61.25
88.63
110.45
118.18
109.84
90.10
68.94
55.32
53.54
60.17
66.66
63.65
45.77
15.25
-19.87
-48.15
-61.28
-55.93
-34.69
-3.70
30.53
63.09
91.50
112.56
122.75
117.55
94.26
54.88
6.20
-41.26
-77.58
-97.15
-100.80
-93.68
-82.67
-73.37
-68.45
-68.90
-73.93
-82.13
-91.23
-98.32
-100.49
-96.17
-85.93
-71.17
-53.81
-34.35
-12.95
9.49
29.77
42.59
42.93
28.90
5.16
-19.02
-32.38
-26.61
0.10
43.25
93.72
141.78
179.62
202.44
207.12
191.60
155.62
102.26
39.13
-23.16
-73.16
-103.06
-111.26
-103.06
-88.80
-79.14
-81.76
-98.19
-124.95
-155.65
-184.07
-205.27
-215.42
-212.55
-195.68
-166.65
-129.50
-89.54
-51.23
-16.55
14.89
45.29
75.44
104.17
127.93
142.79
145.71
134.95
110.56
74.27
31.15
-10.95
-43.30
-60.36
-62.57
-55.88
-48.07
-43.73
-42.42
-39.61
-31.14
-16.00
3.42
23.49
43.20
63.46
86.14
109.87
128.89
135.10
122.39
91.54
50.37
11.47
-13.55
-18.95
-7.77
10.48
24.21
25.09
11.78
-10.48
-34.00
-52.69
-65.46
-75.04
-85.33
-96.98
-106.76
-109.33
-101.24
-84.37
-65.77
-53.98
-52.76
-58.48
-60.75
-49.41
-20.21
21.65
62.50
86.97
83.87
51.71
-2.18
-64.03
-119.84
-159.04
-176.27
-171.77
-148.71
-112.16
-67.30
-18.82
29.36
74.59
114.31
147.43
172.71
190.48
200.87
203.59
198.31
184.77
164.39
139.86
115.26
93.41
75.32
58.58
38.41
10.20
-28.64
-75.63
-123.54
-160.48
-174.54
-157.16
-107.94
-36.23
41.12
104.16
138.61
140.81
119.46
89.51
63.93
48.26
39.33
31.09
19.38
6.07
-3.30
-5.01
-0.22
5.06
4.74
-3.09
-13.85
-21.33
-22.18
-18.91
-18.81
-27.51
-45.26
-65.90
-81.64
-87.32
-83.50
-75.01
-67.07
-62.39
-59.43
-55.74
-50.78
-47.27
-48.97
-57.61
-70.87
-82.45
-86.04
-78.37
-61.79
-43.15
-29.44
-23.73
-22.70
-19.29
-6.94
15.20
42.48
67.10
83.08
91.05
96.00
103.67
115.19
126.37
130.19
122.08
103.88
81.72
61.98
45.82
29.52
8.81
-15.72
-36.27
-41.58
-23.85
14.01
58.84
91.97
99.02
76.87
34.51
-12.25
-49.41
-70.08
-76.82
-76.86
-76.96
-78.05
-75.13
-61.41
-32.55
9.35
56.66
98.33
124.56
129.64
112.80
77.63
29.34
-25.35
-79.30
-124.40
-151.65
-153.62
-127.43
-77.82
-16.58
39.19
74.20
80.21
59.72
25.15
-6.80
-21.45
-12.80
15.70
52.60
84.19
99.66
94.21
70.31
34.80
-3.00
-35.33
-57.18
-67.73
-69.91
-68.20
-67.79
-71.47
-80.01
-90.63
-99.03
-101.17
-94.56
-80.04
-61.12
-44.06
-34.63
-37.32
-52.85
-77.63
-103.85
-121.42
-123.09
-106.14
-74.55
-35.86
2.70
37.88
71.48
107.12
147.63
190.79
231.01
261.36
277.38
278.95
268.67
250.97
229.46
207.65
187.74
171.39
158.95
149.11
140.48
131.95
123.60
114.04
99.79
73.72
28.05
-40.45
-126.16
-213.10
-281.30
-314.44
-308.33
-271.71
-220.78
-170.72
-128.75
-94.58
-63.78
-33.93
-5.56
18.96
38.62
55.45
71.64
86.64
93.93
84.29
49.95
-9.46
-84.93
-161.41
-222.10
-255.74
-258.80
-236.26
-197.89
-153.98
-112.33
-75.96
-45.30
-19.67
-0.03
11.70
15.14
13.27
12.78
19.90
37.45
60.96
80.81
85.62
67.82
27.72
-27.24
-84.73
-132.55
-160.93
-165.37
-145.45
-105.41
-53.91
-2.30
36.61
53.96
47.15
21.44
-12.72
-44.12
-64.00
-68.98
-60.14
-42.41
-21.72
-2.95
11.24
21.61
30.99
43.54
61.16
82.60
102.70
115.63
118.74
113.98
107.88
106.67
112.96
123.42
131.22
129.74
116.24
93.66
67.99
46.28
33.09
29.62
33.96
42.67
52.92
62.77
71.37
76.34
74.27
60.88
34.20
-2.42
-40.24
-67.28
-75.01
-61.77
-34.84
-6.11
13.26
17.65
8.61
-8.54
-27.61
-45.71
-61.82
-75.63
-85.00
-85.06
-71.48
-42.82
-4.06
35.38
64.24
74.66
64.47
37.55
1.94
-34.02
-63.43
-83.20
-92.67
-92.94
-85.43
-70.81
-49.98
-24.12
3.05
27.09
43.21
48.60
44.27
34.60
26.88
26.32
34.38
46.47
55.98
57.57
49.47
33.98
14.32
-6.34
-27.08
-46.88
-64.37
-77.21
-84.33
-88.31
-95.00
-111.27
-139.26
-174.08
-204.28
-216.60
-202.30
-160.20
-97.75
-26.30
41.64
96.02
130.92
145.11
143.06
132.31
122.51
120.39
128.25
141.73
152.71
154.15
143.02
122.63
99.28
79.68
67.17
61.65
60.99
63.24
68.94
79.81
97.68
120.49
142.20
153.09
143.56
110.17
57.96
0.83
-45.78
-70.82
-73.73
-63.28
-51.86
-48.55
-53.34
-59.47
-57.42
-42.39
-17.11
9.71
27.83
31.48
20.47
-0.08
-24.53
-48.86
-72.47
-96.81
-122.19
-146.78
-165.53
-173.57
-168.53
-153.59
-135.66
-122.04
-116.34
-115.85
-114.31
-104.93
-85.61
-59.80
-34.85
-18.03
-12.19
-15.24
-20.80
-23.39
-20.94
-15.74
-12.42
-13.11
-15.38
-12.21
3.17
33.20
72.67
110.29
133.46
134.10
113.65
80.31
45.78
19.34
5.54
4.58
14.21
31.26
50.85
67.40
74.74
68.40
47.43
14.75
-24.05
-62.88
-95.71
-118.47
-128.56
-126.21
-114.90
-101.35
-94.25
-99.96
-119.08
-144.94
-166.55
-173.13
-159.18
-125.96
-79.92
-30.07
16.69
56.21
87.68
112.21
131.84
149.27
166.75
186.16
206.77
226.20
240.73
246.77
242.66
228.09
203.65
169.33
126.62
78.95
32.52
-4.72
-27.36
-35.29
-34.19
-31.46
-32.03
-33.33
-28.01
-8.82
25.07
64.92
96.48
106.56
90.62
54.15
9.86
-29.23
-56.12
-70.56
-77.88
-83.43
-90.22
-97.72
-103.38
-104.91
-100.96
-92.22
-79.40
-63.47
-44.69
-22.81
1.61
26.64
47.87
59.50
55.70
34.86
-0.30
-42.06
-80.60
-107.04
-115.67
-104.56
-74.93
-31.76
17.45
62.47
92.66
100.88
85.88
53.87
15.57
-18.68
-43.49
-58.49
-66.42
-69.97
-68.77
-61.53
-47.48
-27.87
-5.42
17.37
39.25
60.09
78.61
92.47
98.44
95.34
86.20
77.65
76.79
87.78
109.04
134.18
155.08
164.68
159.48
140.54
111.52
77.97
45.37
18.61
1.47
-4.41
-1.34
4.57
4.93
-9.07
-40.91
-87.00
-135.96
-172.27
-182.71
-161.86
-115.98
-59.59
-10.23
19.75
27.15
17.08
-0.84
-18.05
-29.76
-35.71
-38.69
-43.25
-52.96
-69.11
-89.72
-107.90
-115.00
-103.54
-72.64
-29.67
11.79
38.02
41.99
26.73
4.32
-12.20
-15.16
-6.61
4.01
5.90
-7.46
-34.00
-65.37
-89.77
-97.70
-85.67
-57.73
-24.48
1.52
10.16
-1.22
-26.74
-53.53
-67.04
-57.11
-21.54
32.59
93.15
146.34
181.67
192.93
178.44
141.21
87.76
28.34
-25.35
-62.28
-75.41
-63.81
-33.83
1.87
28.89
35.73
19.56
-13.29
-49.69
-76.48
-86.69
-81.49
-68.42
-54.58
-42.88
-30.96
-14.65
6.85
29.26
44.13
44.07
25.82
-7.52
-49.33
-91.91
-129.05
-157.54
-175.12
-181.00
-174.35
-155.60
-126.82
-92.27
-57.97
-29.40
-10.88
-2.85
-1.83
-0.55
9.22
32.97
70.28
113.07
148.99
165.38
156.24
123.89
78.32
32.82
-2.72
-25.25
-39.61
-53.28
-71.99
-95.14
-116.69
-128.62
-124.46
-101.83
-60.98
-4.77
63.16
136.94
207.97
265.67
299.66
304.72
282.17
240.69
192.22
147.95
114.97
94.25
82.24
71.70
55.60
28.25
-11.24
-58.04
-102.49
-133.27
-143.00
-131.76
-108.30
-84.84
-71.51
-70.47
-74.63
-72.92
-57.41
-30.09
-2.05
11.08
-0.88
-37.59
-88.26
-136.65
-169.62
-181.33
-174.35
-154.14
-124.64
-86.57
-38.03
20.25
82.62
137.72
173.45
182.20
164.12
127.30
83.50
44.16
16.70
4.04
5.02
16.53
34.80
54.80
70.75
76.32
68.49
48.99
25.65
8.15
3.25
11.22
25.34
37.28
41.63
40.03
37.86
39.44
44.31
45.42
35.05
10.26
-22.64
-50.64
-60.19
-45.25
-11.53
26.93
53.46
57.47
37.44
0.48
-42.78
-83.97
-119.01
-147.63
-168.46
-178.06
-170.97
-144.55
-103.00
-57.54
-23.54
-12.66
-27.60
-58.64
-88.42
-98.95
-79.88
-34.03
25.01
77.92
110.14
117.27
106.83
93.06
89.59
103.85
134.00
173.01
211.75
243.73
264.91
272.67
265.23
242.12
207.14
167.66
133.34
110.69
99.45
91.51
74.36
39.31
-14.30
-76.51
-132.64
-171.07
-189.77
-197.27
-206.77
-228.60
-262.79
-300.84
-329.71
-339.77
-328.99
-301.44
-263.71
-220.57
-175.77
-132.34
-95.57
-71.12
-61.59
-64.13
-69.90
-69.71
-58.75
-39.58
-18.85
-2.07
10.86
25.72
48.31
79.94
113.91
139.28
147.04
135.53
112.49
91.37
85.53
101.47
137.51
184.64
230.65
264.15
276.63
265.05
231.59
183.72
130.45
79.61
34.13
-7.71
-48.87
-90.31
-127.80
-154.25
-163.03
-152.40
-126.55
-93.00
-59.47
-30.15
-7.14
8.57
15.30
12.53
3.77
-3.23
0.61
18.83
46.48
70.32
75.74
55.18
12.62
-37.78
-79.73
-101.06
-99.16
-79.24
-50.91
-23.77
-5.77
-3.19
-20.33
-59.00
-114.62
-175.92
-225.91
-247.31
-229.89
-175.01
-96.33
-13.03
57.05
104.62
129.50
136.69
132.50
120.96
105.33
88.86
76.38
71.38
73.30
77.49
77.36
69.98
57.56
47.01
44.31
51.47
65.86
82.66
98.97
113.68
126.61
134.49
131.59
112.23
75.98
30.32
-12.11
-38.88
-46.29
-40.56
-35.25
-42.63
-66.03
-98.71
-127.16
-140.20
-134.42
-116.66
-97.17
-82.29
-69.90
-50.95
-17.87
28.83
77.98
114.16
125.77
111.38
79.72
42.79
9.76
-18.00
-43.88
-71.71
-99.74
-120.62
-125.33
-108.73
-74.46
-32.16
5.35
29.75
39.45
39.63
38.70
42.63
53.40
67.77
81.75
91.92
98.05
101.14
100.66
93.38
74.09
40.21
-5.79
-55.47
-98.25
-126.20
-136.99
-134.39
-124.34
-111.77
-98.08
-82.27
-63.36
-43.09
-25.97
-16.38
-16.19
-22.41
-29.28
-31.10
-25.48
-14.71
-3.18
4.30
5.37
-0.35
-10.79
-22.81
-32.42
-34.93
-27.08
-7.68
19.43
46.64
64.89
68.78
60.42
48.73
45.58
58.40
86.68
121.45
150.43
164.00
159.43
141.39
118.25
97.99
84.59
77.36
72.48
65.27
52.97
35.19
14.28
-6.27
-22.64
-32.57
-35.65
-33.27
-28.78
-24.65
-22.25
-21.00
-19.95
-19.49
-21.52
-28.85
-42.82
-62.61
-83.54
-100.00
-107.41
-104.92
-96.00
-86.19
-80.37
-78.64
-76.95
-68.75
-50.25
-23.41
4.18
21.88
21.33
0.48
-34.46
-72.09
-99.85
-109.72
-101.26
-80.01
-55.49
-36.39
-28.21
-31.40
-41.98
-53.36
-58.46
-53.12
-37.24
-15.92
3.37
13.32
9.79
-6.38
-29.44
-50.46
-62.23
-60.80
-47.43
-25.10
3.26
36.31
73.53
111.89
145.62
167.26
172.40
162.07
143.62
127.94
123.50
133.26
152.36
171.20
178.82
168.66
140.24
99.31
55.55
18.45
-5.83
-16.71
-18.28
-16.72
-16.57
-18.62
-20.48
-17.63
-7.12
11.16
32.93
52.22
63.32
62.91
51.73
33.06
11.31
-10.38
-29.83
-45.51
-56.24
-60.46
-58.42
-52.78
-49.65
-55.98
-76.66
-110.86
-151.65
-188.99
-213.41
-218.83
-202.81
-166.27
-112.58
-46.54
25.08
94.54
153.27
195.06
216.59
219.43
207.46
184.54
152.79
111.24
58.63
-3.64
-68.95
-127.26
-168.88
-188.78
-189.50
-178.52
-164.84
-153.27
-143.06
-128.83
-105.66
-72.99
-34.57
2.53
31.85
48.16
49.19
35.06
7.40
-28.99
-66.98
-96.75
-109.39
-98.80
-66.46
-20.62
25.56
58.39
70.54
62.88
43.84
24.02
11.12
5.98
3.15
-4.77
-22.48
-46.94
-69.02
-76.90
-63.28
-29.17
15.68
56.31
79.74
79.53
60.17
34.02
15.95
17.11
39.47
76.85
117.59
151.19
171.32
177.84
173.55
161.68
144.42
122.11
95.34
66.14
38.76
16.96
3.20
-2.59
-3.23
-1.87
-2.02
-5.08
-11.25
-18.63
-24.46
-26.69
-24.83
-21.87
-22.83
-33.53
-56.72
-90.24
-127.27
-158.89
-178.79
-183.73
-174.13
-150.74
-113.96
-63.70
-1.36
68.03
136.69
195.06
235.51
254.31
253.21
237.17
211.55
181.02
147.11
109.88
67.56
19.39
-33.47
-86.75
-132.81
-163.69
-173.01
-160.20
-130.47
-93.22
-58.55
-34.21
-24.27
-27.80
-41.06
-58.73
-76.60
-92.01
-103.72
-112.20
-118.76
-126.06
-136.01
-149.36
-163.15
-170.58
-162.84
-132.98
-81.68
-17.57
44.71
91.90
117.55
124.61
122.25
118.77
117.32
114.27
104.66
86.36
62.06
37.14
15.23
-3.88
-23.46
-44.39
-62.66
-69.20
-55.45
-19.99
29.39
77.05
106.75
108.10
82.42
41.10
0.90
-22.85
-22.37
1.61
40.54
83.43
119.91
143.26
149.71
137.08
105.03
55.56
-3.90
-61.74
-103.86
-119.96
-108.83
-79.74
-49.15
-31.77
-34.65
-52.69
-72.92
-81.58
-72.32
-50.47
-29.47
-23.64
-38.71
-68.99
-99.20
-113.33
-102.98
-71.03
-29.29
10.40
41.81
67.01
91.15
116.07
137.29
146.31
138.68
118.85
101.03
100.83
125.83
169.27
212.18
234.41
223.89
183.39
125.58
64.73
8.63
-43.95
-98.68
-159.16
-221.47
-276.22
-312.98
-326.73
-319.86
-299.17
-271.07
-236.56
-192.70
-135.54
-65.95
8.99
78.39
132.63
168.09
187.07
196.16
200.38
200.92
195.21
180.08
154.94
122.16
87.34
55.39
29.95
11.94
-0.14
-7.63
-11.51
-12.32
-11.94
-12.94
-19.43
-34.29
-57.84
-87.45
-116.65
-139.28
-151.16
-153.71
-152.32
-154.07
-162.37
-173.72
-179.22
-168.41
-135.73
-83.22
-20.41
41.39
93.24
131.90
159.28
177.46
186.66
183.27
163.39
126.74
78.62
29.60
-8.78
-28.29
-27.61
-11.14
13.41
39.10
62.62
83.09
100.96
114.60
121.32
117.50
101.29
73.60
38.11
0.17
-36.41
-69.76
-100.27
-128.35
-152.43
-168.59
-171.96
-160.19
-134.70
-102.31
-71.60
-49.22
-36.75
-29.47
-19.62
-0.47
28.50
60.80
85.79
93.68
80.52
49.20
8.90
-30.10
-59.64
-77.18
-84.64
-85.26
-80.72
-69.73
-50.26
-21.93
11.37
44.25
73.02
98.51
126.18
160.84
203.41
247.02
279.89
289.89
269.85
221.26
152.37
76.46
6.50
-45.91
-73.53
-74.54
-53.35
-20.53
10.84
28.46
26.93
7.97
-20.60
-49.69
-72.90
-87.44
-93.51
-91.67
-82.33
-64.63
-38.54
-5.66
29.68
60.72
81.19
86.40
76.18
53.91
26.44
1.08
-17.06
-26.74
-32.42
-41.39
-61.93
-98.05
-147.80
-203.24
-253.25
-287.93
-301.30
-293.70
-268.57
-230.62
-183.10
-127.70
-67.27
-7.49
41.61
69.55
69.18
41.59
-3.77
-52.49
-90.73
-111.53
-115.29
-109.24
-101.58
-98.15
-99.48
-101.40
-98.42
-86.49
-66.14
-41.10
-17.27
1.14
13.80
24.30
38.55
60.92
92.24
128.15
162.44
190.65
212.23
230.84
249.49
267.78
278.93
273.61
245.08
195.26
135.81
82.94
50.47
41.89
51.14
66.41
77.54
80.63
77.37
72.66
69.84
69.52
69.05
65.05
53.91
33.09
2.89
-33.66
-69.90
-98.24
-112.36
-110.94
-98.72
-84.39
-78.01
-85.95
-109.77
-145.29
-184.65
-217.96
-235.84
-231.18
-200.44
-146.58
-78.57
-10.23
44.53
77.26
88.01
85.50
81.99
88.25
106.99
131.57
149.02
147.21
122.13
79.43
32.73
-4.30
-22.72
-21.81
-7.01
14.06
34.62
50.16
57.20
53.08
35.59
5.15
-33.77
-72.72
-101.71
-114.12
-108.42
-89.54
-65.44
-43.54
-28.26
-19.69
-15.56
-12.78
-9.50
-3.92
6.44
26.18
60.50
111.10
173.93
237.60
287.82
312.29
306.02
272.69
222.14
166.16
113.68
69.10
31.95
-0.29
-30.61
-60.33
-88.50
-112.38
-128.28
-134.38
-130.29
-117.96
-100.37
-80.57
-61.89
-47.86
-42.64
-48.58
-64.44
-83.72
-97.21
-97.68
-84.42
-65.21
-51.22
-51.07
-65.88
-88.78
-108.85
-116.92
-109.37
-87.46
-56.54
-22.95
6.24
24.86
28.82
17.86
-2.80
-23.96
-34.13
-24.89
5.92
52.52
102.67
141.67
157.22
144.40
106.74
55.81
6.22
-29.53
-45.10
-41.46
-24.90
-4.55
11.11
16.56
10.41
-5.63
-26.96
-48.17
-65.16
-75.57
-79.96
-79.39
-74.71
-65.72
-51.47
-32.52
-11.91
3.97
7.86
-5.27
-34.88
-74.06
-111.96
-137.54
-145.31
-137.11
-121.20
-106.03
-95.23
-86.32
-73.58
-54.49
-32.57
-15.90
-10.47
-14.45
-16.85
-3.36
35.36
97.70
170.44
235.68
277.82
289.76
274.56
242.29
205.85
176.18
159.76
156.31
159.21
157.70
140.74
102.76
46.15
-17.81
-73.89
-108.09
-113.92
-94.85
-62.21
-31.39
-14.44
-17.19
-36.94
-65.55
-93.35
-112.07
-117.36
-107.23
-81.75
-41.18
12.34
74.66
139.16
196.69
238.36
256.74
248.26
213.54
157.76
89.82
20.58
-39.17
-82.19
-105.58
-112.01
-106.91
-97.33
-88.41
-82.23
-79.17
-78.88
-82.35
-90.16
-102.47
-116.49
-126.92
-128.24
-117.43
-96.61
-71.43
-48.60
-31.38
-19.44
-9.30
2.72
17.09
31.55
41.73
44.74
41.18
34.82
30.73
32.89
42.08
54.25
62.13
57.44
36.52
2.29
-35.60
-64.01
-72.56
-57.69
-24.88
15.53
52.66
80.40
97.75
106.35
107.65
100.99
85.55
62.67
37.72
17.67
7.66
7.91
13.07
17.12
16.25
11.65
7.53
6.98
8.72
6.61
-6.02
-32.71
-70.26
-110.36
-142.63
-158.64
-155.23
-134.18
-102.21
-67.48
-37.43
-16.02
-3.20
4.51
12.41
24.36
41.95
63.04
82.61
94.80
93.82
76.15
40.78
-9.34
-68.48
-127.78
-177.45
-208.57
-215.24
-197.52
-160.71
-115.56
-73.21
-43.09
-29.96
-32.74
-46.14
-62.08
-73.47
-74.56
-63.66
-42.61
-16.07
9.85
30.51
44.61
55.69
68.91
88.65
114.41
139.65
155.05
152.05
128.60
89.89
47.02
11.33
-10.03
-17.06
-15.79
-13.11
-13.73
-16.69
-18.07
-13.95
-3.71
9.16
20.04
25.67
26.91
26.71
28.90
35.46
45.14
54.68
60.46
60.56
54.26
42.76
27.10
8.68
-9.64
-23.01
-24.76
-9.89
22.19
65.51
109.81
144.04
160.98
159.72
143.29
116.85
84.43
49.33
15.23
-13.20
-31.70
-40.16
-42.80
-47.28
-59.08
-78.20
-99.47
-115.35
-121.78
-120.32
-116.76
-115.27
-115.91
-113.87
-103.03
-81.27
-51.42
-20.00
7.34
27.69
41.63
51.00
56.92
59.88
59.78
57.58
53.32
45.73
31.85
8.83
-22.56
-56.73
-84.64
-99.96
-102.12
-97.96
-96.55
-102.64
-113.13
-117.82
-106.39
-75.40
-31.81
11.12
40.25
49.52
42.74
29.60
20.10
18.33
21.72
23.11
16.37
1.19
-16.48
-27.19
-23.98
-5.62
21.76
48.12
63.78
63.61
49.23
27.32
7.52
-1.78
3.30
20.38
40.92
54.07
51.29
31.79
3.26
-21.87
-33.06
-27.10
-9.39
10.11
23.82
29.58
30.84
32.63
38.26
48.61
63.26
83.02
109.29
141.40
173.07
193.68
191.54
159.77
100.49
23.87
-55.17
-122.69
-168.85
-189.28
-185.33
-162.24
-129.10
-94.74
-66.11
-44.83
-27.62
-9.55
12.72
37.41
59.18
71.42
71.33
60.87
46.23
33.83
26.73
24.50
24.15
23.11
19.94
14.77
7.83
-0.75
-10.84
-22.03
-31.81
-36.91
-33.66
-20.86
-1.03
20.04
34.35
36.75
26.05
7.68
-9.55
-17.55
-13.68
-3.10
5.02
1.31
-16.91
-45.33
-75.25
-99.74
-116.92
-129.40
-140.75
-150.02
-151.53
-137.51
-104.44
-57.68
-10.40
22.23
31.72
20.51
1.74
-8.54
0.71
30.14
69.13
101.93
114.38
101.43
68.24
27.59
-6.82
-26.86
-31.74
-27.49
-20.26
-13.23
-5.28
5.40
16.44
20.42
7.49
-27.37
-79.81
-135.10
-175.26
-187.83
-172.07
-139.24
-104.47
-78.94
-63.65
-51.44
-32.35
-0.58
41.31
84.92
119.44
137.99
139.30
127.63
109.56
91.83
80.53
79.98
94.10
123.43
164.95
211.05
251.58
277.08
282.42
270.15
247.95
226.31
212.52
207.94
208.16
204.97
190.78
161.12
117.28
63.95
8.34
-43.75
-89.03
-125.46
-151.74
-164.98
-162.47
-143.29
-112.24
-80.04
-60.82
-66.68
-100.35
-153.16
-206.29
-239.46
-239.32
-206.46
-154.75
-105.11
-76.81
-78.11
-104.62
-141.25
-170.26
-179.65
-168.07
-144.89
-123.69
-115.66
-122.15
-135.15
-140.65
-126.52
-89.75
-38.07
13.31
50.21
65.16
61.53
50.11
41.96
43.02
50.88
58.46
58.64
50.16
37.32
26.66
23.18
26.80
34.36
42.52
51.58
64.66
85.46
113.75
144.10
168.31
178.64
172.64
153.17
128.16
106.99
96.92
100.85
115.82
134.32
145.59
140.24
112.88
65.52
8.11
-45.08
-80.47
-91.97
-82.51
-64.06
-50.64
-52.07
-69.76
-95.90
-119.03
-128.77
-120.85
-97.16
-63.84
-27.42
7.71
38.13
60.26
69.00
59.44
29.56
-16.47
-67.22
-107.57
-123.74
-110.11
-72.14
-25.19
11.90
24.76
9.33
-26.80
-69.33
-103.81
-122.53
-125.59
-118.79
-109.05
-100.35
-93.67
-87.82
-82.12
-76.62
-71.04
-63.89
-51.50
-30.43
0.75
39.76
80.55
116.29
141.04
152.12
149.72
136.90
118.07
97.93
80.34
66.98
57.48
49.64
41.06
29.55
14.12
-5.93
-30.43
-57.99
-85.55
-107.36
-117.48
-110.57
-85.51
-45.94
0.66
44.99
79.94
101.56
110.63
110.84
107.33
104.37
103.01
100.94
92.32
71.28
35.57
-10.24
-55.77
-87.94
-97.37
-82.82
-50.79
-13.16
18.49
36.02
36.46
20.19
-10.12
-50.27
-94.98
-137.47
-170.54
-187.31
-183.83
-160.05
-119.73
-70.39
-21.03
18.57
41.32
44.31
30.60
8.90
-9.56
-15.16
-4.88
17.32
42.21
61.20
70.11
71.31
71.17
75.45
86.84
102.84
119.31
132.75
142.50
149.25
152.20
148.44
133.74
106.03
67.71
27.23
-4.00
-17.36
-10.32
11.46
38.47
60.66
71.89
70.59
57.88
34.85
0.84
-43.68
-95.95
-148.32
-190.45
-213.47
-214.25
-197.67
-173.97
-154.01
-141.99
-134.52
-121.32
-91.74
-40.96
26.48
96.75
153.42
184.17
187.40
172.00
152.05
140.47
141.67
151.07
157.46
150.48
126.07
88.73
48.38
15.38
-2.88
-5.58
3.61
17.54
28.30
29.57
17.58
-7.76
-43.93
-85.89
-128.46
-166.14
-194.53
-210.75
-213.09
-201.63
-176.77
-140.36
-95.13
-46.32
-1.21
32.76
49.92
51.21
43.95
40.29
50.87
79.15
118.74
156.73
180.36
182.35
164.92
135.99
105.67
81.78
67.13
60.06
55.71
48.58
33.93
11.27
-15.77
-40.18
-54.52
-56.16
-48.56
-41.21
-44.30
-64.46
-101.64
-149.82
-200.45
-244.83
-276.50
-290.13
-282.45
-252.79
-204.63
-145.71
-86.02
-35.19
1.76
25.01
40.12
54.20
72.38
95.53
120.23
141.75
156.07
162.28
161.40
155.98
148.97
142.34
137.29
133.16
128.83
122.97
116.04
110.02
106.58
106.13
105.39
98.84
80.27
46.66
-0.70
-56.26
-111.76
-160.65
-198.86
-226.11
-243.40
-252.30
-253.51
-246.79
-231.27
-205.77
-170.79
-128.04
-81.21
-33.98
10.90
51.58
86.39
112.11
125.34
123.98
109.67
87.35
62.75
39.74
18.22
-2.79
-22.96
-38.62
-44.69
-38.62
-23.27
-6.72
3.73
5.21
1.92
0.43
4.50
12.01
16.44
12.55
0.55
-11.67
-13.94
1.39
33.82
74.69
111.52
133.21
135.15
119.72
96.18
76.12
70.11
83.82
116.00
159.57
203.51
237.30
253.94
251.59
232.59
202.68
168.88
137.47
113.65
99.43
94.09
93.68
92.10
82.77
61.00
26.72
-16.10
-59.78
-97.71
-126.22
-145.80
-159.32
-168.37
-171.96
-166.73
-152.24
-132.16
-114.73
-108.07
-114.23
-128.17
-139.67
-140.70
-130.23
-115.46
-106.04
-108.52
-121.60
-137.88
-149.40
-151.69
-146.49
-138.22
-131.21
-126.78
-123.34
-118.80
-111.27
-100.53
-86.86
-71.50
-55.61
-39.83
-24.10
-7.10
11.76
31.92
49.63
59.29
56.06
39.68
17.32
0.82
1.53
22.68
57.49
91.65
110.98
108.85
88.74
61.38
36.51
18.38
3.53
-13.91
-36.24
-59.40
-74.00
-72.09
-51.70
-19.24
15.34
43.23
61.82
74.70
87.05
101.94
117.22
127.30
126.70
114.80
95.71
76.21
62.21
55.48
55.18
58.41
62.89
67.52
72.13
76.41
78.44
76.86
70.27
59.72
47.66
37.23
31.75
33.00
40.97
52.43
62.75
66.08
58.77
40.66
15.98
-7.71
-23.61
-27.76
-21.30
-9.19
1.04
2.83
-8.02
-32.56
-68.65
-112.63
-158.92
-200.72
-230.79
-243.95
-238.73
-217.81
-188.22
-156.99
-129.06
-104.39
-79.18
-49.03
-12.59
25.29
56.33
71.61
67.51
47.92
21.79
-0.95
-14.21
-16.15
-9.02
4.58
21.74
39.27
52.08
53.90
39.54
7.36
-38.36
-89.50
-136.52
-171.43
-189.38
-187.64
-166.06
-126.30
-73.97
-17.82
31.50
66.10
84.49
92.15
99.73
116.25
145.38
183.11
219.60
244.31
249.14
231.80
194.14
142.27
83.44
25.72
-23.11
-57.04
-72.42
-69.10
-49.80
-20.25
13.66
46.46
74.41
96.83
114.26
128.72
140.85
148.85
148.18
133.74
102.84
57.29
4.44
-46.10
-86.18
-113.68
-132.93
-151.26
-174.26
-200.76
-222.98
-229.45
-212.76
-173.25
-120.32
-69.01
-32.62
-18.76
-26.34
-47.68
-72.51
-91.77
-99.85
-94.79
-78.22
-52.60
-22.70
6.55
30.18
44.37
47.71
41.09
27.73
11.13
-4.49
-15.97
-20.79
-17.69
-7.52
7.34
22.39
32.65
33.25
22.42
1.97
-22.23
-41.94
-51.50
-48.99
-38.23
-25.95
-18.83
-20.79
-30.70
-44.35
-55.70
-60.92
-58.04
-48.41
-34.29
-17.22
2.53
26.51
56.25
92.30
132.17
171.51
204.75
227.17
237.02
234.55
221.29
197.40
162.82
118.35
68.33
20.08
-18.70
-42.21
-50.48
-48.42
-43.69
-41.89
-44.10
-47.04
-45.20
-36.15
-21.86
-9.62
-8.15
-23.08
-53.68
-92.55
-129.56
-154.93
-164.26
-159.07
-146.39
-135.37
-132.65
-139.86
-152.11
-161.36
-158.60
-139.21
-104.17
-59.74
-14.42
26.11
60.39
91.64
123.56
157.96
192.89
224.26
249.31
267.47
280.44
288.68
290.11
280.14
255.09
214.24
161.35
104.09
50.57
8.24
-18.63
-28.64
-24.03
-10.47
4.69
13.69
12.13
-1.26
-24.20
-53.49
-85.41
-115.77
-140.01
-152.13
-148.18
-128.23
-100.07
-76.85
-71.58
-91.87
-134.98
-190.06
-242.07
-278.59
-291.60
-278.82
-241.62
-183.34
-110.19
-29.78
48.88
118.15
173.08
212.62
239.47
257.90
273.61
290.98
311.79
333.56
349.49
350.11
327.39
279.82
213.31
141.24
77.45
31.55
4.02
-13.44
-32.61
-63.80
-110.58
-169.81
-232.59
-289.74
-334.24
-362.11
-372.38
-364.55
-339.62
-299.77
-250.25
-199.23
-155.23
-123.82
-103.82
-89.22
-72.15
-48.42
-20.14
6.18
24.23
32.69
34.56
35.15
36.27
35.91
30.11
17.44
1.84
-9.01
-7.22
9.55
37.15
65.62
85.52
92.07
86.58
75.80
67.32
67.10
76.24
91.55
107.12
116.86
118.25
112.13
102.58
93.31
86.77
83.26
81.60
80.11
77.05
72.26
66.04
60.51
58.30
60.91
68.31
77.35
82.49
76.27
52.65
9.11
-50.46
-116.16
-174.25
-210.68
-216.62
-190.47
-139.90
-78.45
-22.19
15.56
28.18
15.93
-13.17
-47.07
-71.56
-75.33
-53.48
-9.89
43.14
89.02
112.27
104.93
68.02
11.04
-51.72
-105.94
-139.57
-145.94
-123.88
-79.05
-22.77
30.24
65.89
75.51
58.55
24.32
-12.18
-34.42
-31.95
-4.00
39.55
81.80
106.67
104.99
78.83
38.47
-2.09
-32.33
-49.18
-55.50
-56.22
-53.46
-46.19
-32.11
-11.51
10.70
26.71
28.23
11.49
-22.12
-65.61
-108.70
-140.74
-152.69
-139.87
-102.13
-44.75
23.41
91.58
150.01
192.16
215.37
221.59
214.91
200.30
181.69
161.96
142.66
124.79
109.74
97.71
88.23
78.67
65.37
45.43
18.41
-12.60
-43.03
-68.34
-87.51
-101.45
-111.72
-118.06
-117.51
-106.95
-84.52
-52.72
-16.92
15.12
35.01
35.71
12.62
-33.51
-96.29
-162.07
-214.00
-236.70
-222.36
-174.68
-107.20
-38.95
13.84
41.34
42.98
24.91
-3.42
-32.97
-57.90
-75.04
-84.33
-85.88
-80.77
-70.44
-57.15
-44.89
-37.57
-38.69
-48.37
-64.09
-80.14
-90.31
-90.21
-77.49
-52.96
-17.98
24.91
73.22
122.76
168.11
203.83
225.15
230.76
221.93
202.75
177.31
149.26
120.69
92.71
66.64
43.54
26.18
16.75
16.66
24.37
35.07
42.31
40.41
27.80
6.45
-18.65
-43.05
-63.76
-79.74
-91.25
-98.75
-103.37
-106.36
-110.02
-115.44
-121.85
-126.14
-123.40
-111.09
-89.52
-63.57
-38.87
-19.42
-5.64
5.68
18.03
34.12
53.09
72.10
86.55
92.95
90.38
81.52
72.46
68.62
72.45
80.85
87.09
84.40
69.72
45.18
16.29
-10.73
-31.32
-41.58
-38.83
-21.42
9.27
45.95
76.80
88.26
73.14
34.14
-15.59
-57.82
-78.15
-70.75
-40.97
-0.69
36.47
60.50
66.95
56.94
36.25
12.28
-7.22
-17.78
-19.58
-17.50
-19.89
-34.06
-63.18
-103.07
-144.42
-175.14
-186.76
-176.89
-149.67
-113.92
-77.69
-45.67
-17.03
11.56
43.68
79.38
114.18
141.59
154.46
149.14
126.24
91.51
53.93
23.03
6.58
7.28
22.70
45.10
66.19
79.93
84.84
84.35
82.33
80.53
75.56
62.50
37.64
3.21
-33.35
-63.48
-81.13
-86.64
-84.16
-79.72
-76.70
-76.54
-79.36
-85.91
-98.26
-115.54
-133.88
-145.36
-142.95
-124.26
-94.02
-61.93
-37.17
-25.01
-23.35
-27.28
-31.79
-35.26
-39.20
-44.82
-50.85
-51.64
-41.22
-15.74
22.25
65.22
104.58
134.56
155.61
172.23
189.56
207.47
220.77
220.98
201.59
162.40
108.57
49.51
-6.18
-52.00
-84.27
-100.62
-99.73
-82.25
-50.55
-11.27
27.34
57.00
73.25
76.88
73.33
70.69
74.99
88.18
105.55
118.15
116.21
93.42
51.15
-2.17
-54.13
-93.88
-115.49
-120.04
-113.27
-101.68
-90.55
-81.65
-75.17
-70.68
-68.96
-72.02
-81.67
-97.51
-114.75
-127.18
-128.39
-115.88
-92.34
-63.67
-35.94
-11.86
9.31
31.00
54.86
80.50
104.73
123.42
134.79
138.54
136.23
128.68
116.02
96.95
71.36
41.08
8.70
-22.19
-49.95
-74.73
-98.86
-125.14
-155.13
-187.31
-216.04
-234.06
-234.20
-214.43
-178.04
-132.51
-86.10
-44.23
-9.35
18.41
37.50
46.27
43.24
31.07
17.05
9.88
16.01
34.71
59.63
81.94
97.12
106.51
115.86
130.15
147.92
161.83
160.90
137.18
89.70
25.68
-42.62
-102.92
-145.66
-166.98
-166.59
-147.25
-112.43
-65.96
-12.62
41.53
88.64
122.00
136.93
134.12
118.90
99.54
84.40
78.13
81.28
89.65
96.73
95.80
81.86
53.21
12.21
-34.19
-77.14
-107.32
-119.76
-115.39
-101.52
-88.94
-86.83
-99.29
-122.07
-145.20
-155.79
-144.48
-109.68
-58.15
-2.90
42.73
68.83
73.17
60.38
40.33
24.64
22.27
37.64
67.87
105.44
140.42
163.77
170.54
160.73
139.26
112.97
89.00
71.61
62.70
61.21
64.08
67.07
64.58
51.97
26.56
-9.71
-51.78
-91.83
-122.37
-138.14
-136.43
-118.34
-86.66
-46.84
-4.98
32.85
61.95
80.40
88.81
90.68
89.24
86.77
83.16
76.11
61.93
37.34
1.96
-41.42
-85.93
-124.27
-151.20
-165.79
-171.60
-172.97
-173.04
-170.76
-163.16
-147.23
-123.39
-95.01
-65.59
-35.90
-2.57
37.57
84.89
133.28
172.96
195.62
197.82
182.66
155.71
121.97
82.59
37.11
-13.48
-63.92
-105.46
-131.10
-138.81
-133.87
-123.98
-114.64
-105.06
-88.33
-57.33
-9.23
50.00
108.69
153.66
176.12
174.49
152.47
116.78
73.51
28.19
-15.70
-54.71
-86.22
-109.02
-121.71
-123.50
-112.16
-85.95
-44.12
10.14
69.76
124.62
163.82
180.89
174.45
149.02
110.75
65.20
15.65
-35.95
-85.72
-127.63
-152.86
-154.62
-130.95
-87.47
-35.83
10.04
37.74
41.24
20.55
-16.92
-59.81
-95.82
-114.82
-112.75
-92.22
-62.06
-31.75
-8.31
7.16
16.94
22.56
22.87
14.06
-5.28
-32.05
-57.10
-71.02
-69.58
-57.14
-45.64
-46.95
-66.73
-100.55
-136.70
-161.86
-167.44
-151.98
-119.66
-78.60
-36.19
1.34
30.25
49.65
60.20
64.39
65.05
66.08
71.30
84.67
107.71
138.19
169.43
190.90
193.05
170.93
128.62
77.14
30.75
0.16
-11.53
-8.11
1.86
10.45
13.91
13.83
15.64
26.09
50.09
88.05
135.59
182.94
219.27
236.06
230.14
204.66
165.35
118.58
68.52
18.04
-29.85
-70.85
-101.33
-120.97
-133.85
-147.89
-168.89
-197.50
-226.67
-244.71
-241.13
-211.81
-161.26
-99.35
-38.37
11.66
43.88
55.50
47.78
25.48
-3.53
-30.11
-45.45
-44.75
-27.90
0.74
34.32
67.66
97.29
121.76
139.97
149.88
149.47
138.52
120.31
101.22
89.12
87.84
95.39
102.83
98.79
75.98
35.76
-10.38
-46.91
-60.87
-50.44
-24.71
0.88
12.43
5.14
-15.76
-38.84
-54.49
-59.48
-58.55
-59.50
-67.25
-82.04
-98.46
-110.07
-111.80
-102.59
-85.01
-65.16
-50.94
-48.96
-63.02
-90.20
-122.01
-145.86
-150.82
-132.20
-94.67
-52.01
-20.84
-14.72
-36.45
-77.47
-120.57
-146.91
-144.22
-111.15
-58.23
-1.72
41.90
63.89
64.58
51.24
33.64
19.24
12.59
13.97
22.57
36.14
52.77
70.81
88.15
103.27
114.01
119.23
118.34
112.70
104.81
98.07
94.49
92.95
90.18
81.45
65.03
42.90
21.03
6.25
2.94
11.73
28.82
49.39
68.46
82.22
87.27
80.46
60.47
29.20
-5.91
-34.66
-46.87
-38.33
-13.39
17.17
40.37
47.57
36.84
13.75
-13.47
-37.56
-56.28
-72.04
-88.70
-109.08
-131.97
-153.99
-170.47
-179.07
-180.29
-176.99
-172.72
-167.99
-160.03
-142.82
-110.69
-61.54
1.21
68.91
131.65
180.78
211.92
223.63
216.65
192.95
156.08
112.92
73.02
46.78
39.71
49.84
68.19
83.85
90.34
88.54
85.49
87.34
94.62
100.37
95.40
74.60
40.99
5.04
-22.70
-36.54
-39.01
-36.17
-32.60
-28.08
-18.68
-1.94
21.02
43.97
60.39
66.28
62.13
51.25
36.27
17.62
-6.81
-38.02
-74.90
-113.46
-148.14
-174.16
-188.79
-192.67
-188.97
-183.27
-180.00
-180.78
-182.44
-178.42
-163.26
-135.87
-102.16
-71.18
-51.19
-44.30
-45.38
-44.85
-33.53
-7.99
29.66
72.02
110.57
138.09
149.73
143.33
119.11
81.00
35.80
-5.84
-32.95
-37.38
-17.42
19.78
60.72
90.06
98.72
87.18
67.02
54.62
63.06
95.01
140.25
181.30
201.01
192.32
160.43
119.46
83.87
60.75
47.90
36.60
19.51
-5.54
-34.40
-61.02
-82.59
-101.35
-122.70
-148.41
-174.29
-190.17
-186.33
-159.50
-115.29
-67.04
-29.08
-12.23
-18.85
-44.65
-80.47
-115.67
-141.14
-150.87
-144.09
-123.67
-96.50
-70.07
-50.28
-38.72
-31.75
-22.24
-1.29
37.09
93.82
161.62
226.46
271.85
284.84
261.47
207.24
136.13
63.76
3.45
-37.55
-58.13
-59.91
-46.21
-20.69
10.36
39.13
57.56
61.58
54.52
45.93
47.69
66.22
99.06
135.02
160.70
168.09
159.47
147.01
144.85
161.23
191.81
221.76
232.36
210.13
153.27
71.58
-18.03
-99.69
-162.40
-202.67
-221.71
-222.69
-209.19
-184.06
-150.95
-114.02
-78.83
-50.09
-30.53
-20.29
-16.75
-16.47
-16.25
-14.98
-13.39
-14.08
-20.02
-33.09
-53.02
-76.57
-99.34
-116.65
-125.81
-126.18
-118.97
-106.52
-91.04
-74.29
-56.52
-37.14
-14.52
12.60
44.93
82.19
122.67
163.97
203.00
237.14
264.06
282.30
291.37
291.47
283.62
268.93
248.87
224.81
198.24
170.57
143.25
117.69
95.15
76.86
63.38
54.95
51.19
51.15
53.37
56.82
59.35
58.40
51.66
37.08
13.41
-19.54
-60.96
-108.83
-160.23
-211.64
-259.39
-300.09
-331.12
-350.83
-358.44
-354.14
-338.69
-313.61
-280.63
-241.69
-198.85
-154.30
-110.28
-68.97
-32.76
-3.62
16.55
26.09
23.84
9.11
-18.19
-57.14
-105.55
-160.29
-217.22
-271.73
-319.34
-354.15
-371.44
-368.12
-343.33
-298.53
-237.56
-165.82
-89.33
-13.98
55.46
115.28
163.54
199.60
224.19
238.64
244.84
244.93
240.85
234.40
226.50
217.79
208.65
199.57
190.98
183.28
177.12
172.80
170.48
169.48
168.73
167.13
164.56
159.94
151.69
138.60
119.62
94.22
61.82
22.61
-21.83
-68.87
-115.10
-157.40
-192.82
-219.32
-235.70
-242.11
-238.89
-225.93
-202.87
-166.82
-119.09
-63.27
-5.76
49.02
96.53
132.40
153.11
156.36
142.09
112.89
74.84
36.43
7.14
-7.35
-7.29
1.79
12.03
17.27
15.11
7.37
-2.00
-9.70
-15.03
-19.08
-23.07
-27.16
-30.29
-31.30
-29.64
-25.79
-21.17
-17.89
-17.37
-19.71
-23.81
-28.01
-31.01
-32.30
-32.31
-32.15
-33.24
-36.49
-41.93
-48.78
-56.05
-62.86
-68.95
-74.62
-80.59
-87.74
-96.55
-107.04
-118.49
-130.23
-141.10
-150.33
-157.16
-160.94
-161.15
-157.87
-150.73
-139.02
-122.64
-101.54
-76.38
-48.21
-18.09
12.55
42.67
71.17
97.53
121.11
141.75
159.50
174.19
186.05
194.92
200.97
204.22
205.01
203.56
200.17
195.19
188.37
179.60
167.98
152.81
133.10
108.18
77.41
40.75
-0.87
-46.74
-95.35
-145.53
-195.42
-243.05
-286.42
-322.97
-350.50
-366.77
-371.15
-363.85
-346.70
-322.39
-293.53
-262.36
-229.73
-195.96
-160.57
-123.73
-86.04
-49.13
-14.94
15.06
39.98
60.26
76.66
90.55
103.55
117.59
134.64
155.69
180.05
204.20
222.84
230.16
222.36
200.25
169.30
137.91
113.63
101.09
100.41
108.88
122.41
137.65
152.82
166.35
176.45
179.74
172.77
153.53
125.59
95.82
73.29
66.60
79.55
109.83
149.05
186.51
213.13
224.85
223.07
213.01
200.93
191.18
185.78
184.94
188.85
198.37
213.10
231.34
248.68
258.86
255.78
236.84
204.67
165.85
127.50
92.64
58.91
19.62
-31.74
-97.63
-174.86
-255.84
-332.44
-398.98
-453.81
-497.74
-532.14
-557.20
-570.77
-570.59
-555.51
-526.29
-485.07
-434.90
-378.45
-317.71
-254.03
-188.54
-122.95
-59.67
-1.69
48.21
88.01
117.11
136.39
147.82
153.87
156.47
156.85
155.34
151.83
146.15
138.39
129.09
119.14
109.43
100.55
92.65
85.55
78.87
72.27
65.58
58.85
52.30
46.17
40.60
35.57
31.02
26.82
22.89
19.15
15.60
12.27
9.21
6.40
3.85
1.55
-0.50
-2.30
-3.88
-5.24
-6.40
-7.37
-8.16
-8.80
-9.28
-9.61
-9.79
-9.85
-9.79
-9.64
-9.41
-9.04
-8.60
-8.14
-7.66
-7.19
-6.74
-6.30
-5.89
-5.50
-5.12
-4.79
-4.49
-4.21
-3.95
-3.71
-3.49
-3.28
-3.08
-2.90
-2.73
-2.59
-2.46
-2.33
-2.22
-2.10
-2.00
-1.90
-1.81
-1.73
-1.66
-1.60
-1.54
-1.49
-1.46
-1.42
-1.41
-1.39
-1.36
-1.33
-1.25
-1.18
-1.10
-1.07
-1.08
-1.16
-1.26
-1.33
-1.33
-1.25
-1.11
-0.96
-0.86
-0.86
-0.95
-1.09
-1.19
-1.21
-1.09
-0.92
-0.74
-0.69
-0.85
-1.18
-1.59
-1.90
-1.94
-1.66
-1.17
-0.70
-0.55
-0.88
-1.70
-2.70
-3.47
-3.63
-3.02
-1.89
-0.77
-0.29
-0.84
-2.38
-4.36
-5.92
-6.34
-5.29
-3.26
-1.17
-0.07
-0.66
-2.81
-5.54
-7.42
-7.26
-4.38
0.82
7.33
13.93
19.42
22.72
22.87
19.25
12.41
4.52
-0.93
-0.52
7.27
20.78
35.32
45.29
46.74
39.20
25.60
10.41
-2.63
-12.00
-18.35
-23.08
-27.07
-30.16
-31.50
-30.56
-27.80
-24.52
-22.22
-22.09
-24.10
-27.44
-30.98
-33.76
-35.47
-36.50
-37.69
-39.76
-43.01
-46.87
-50.12
-51.23
-48.92
-42.51
-32.23
-18.76
-3.20
13.34
29.76
45.10
58.48
69.06
76.10
78.84
76.84
69.36
57.35
41.81
23.99
5.16
-13.38
-30.41
-45.17
-56.99
-65.51
-70.59
-72.41
-71.27
-67.65
-61.93
-54.64
-46.41
-37.72
-29.05
-20.72
-12.92
-5.85
0.40
5.78
10.25
13.87
16.73
18.83
20.11
20.51
19.92
18.26
15.49
11.56
6.72
1.36
-4.22
-9.83
-15.27
-20.45
-25.41
-30.37
-35.71
-41.33
-47.30
-53.86
-61.34
-70.09
-80.49
-92.78
-107.26
-124.15
-142.49
-161.39
-179.89
-197.02
-211.79
-223.26
-230.70
-233.80
-232.72
-226.67
-215.64
-200.14
-181.05
-159.38
-135.95
-110.88
-83.00
-58.92
-41.28
-31.30
-28.91
-32.90
-41.29
-51.37
-60.59
-67.04
-69.53
-66.15
-55.97
-38.94
-16.07
10.58
38.49
64.42
84.84
96.72
99.31
93.15
80.16
62.95
44.11
26.57
11.89
0.04
-9.95
-18.25
-24.42
-27.32
-25.56
-18.22
-2.88
20.51
49.26
79.21
107.44
133.06
156.95
180.62
205.10
234.96
270.86
308.94
343.12
369.59
388.75
404.09
420.37
441.97
479.73
538.63
614.97
698.29
776.39
838.89
878.31
890.99
877.90
854.28
832.66
816.88
802.45
782.01
749.64
702.52
641.85
511.90
304.51
58.04
-169.31
-340.89
-453.72
-523.90
-569.41
-601.47
-623.90
-626.92
-606.03
-567.15
-523.15
-485.32
-458.50
-441.86
-432.03
-425.70
-413.37
-390.97
-361.10
-330.97
-305.29
-283.79
-263.21
-240.84
-217.02
-191.00
-167.19
-152.25
-150.61
-160.43
-174.35
-184.01
-184.47
-175.85
-159.70
-139.60
-119.18
-100.88
-85.35
-72.26
-61.55
-53.68
-48.97
-46.12
-43.55
-39.88
-34.47
-27.61
-20.24
-13.69
-9.12
-7.03
-7.02
-8.01
-8.64
-7.89
-5.53
-2.09
1.42
4.08
5.38
5.46
4.94
4.61
5.15
6.76
9.29
12.44
15.99
19.83
24.14
29.15
34.96
41.47
47.99
53.79
57.92
59.56
58.11
53.36
45.45
34.78
22.20
8.45
-5.59
-19.16
-31.59
-42.47
-51.60
-58.98
-65.36
-70.55
-74.75
-78.15
-80.60
-81.78
-81.38
-79.02
-74.39
-67.46
-58.13
-46.13
-32.81
-19.00
-5.50
7.00
17.94
27.15
34.63
40.75
45.90
50.32
54.55
58.89
63.43
67.84
71.83
74.78
76.08
74.98
70.78
63.17
52.03
37.64
20.66
2.22
-16.65
-35.11
-52.07
-66.55
-77.72
-84.90
-87.47
-84.87
-76.77
-63.39
-44.61
-22.69
0.26
22.02
40.27
54.05
62.89
66.89
66.48
62.19
54.14
42.44
27.45
9.70
-9.49
-28.27
-44.63
-57.16
-65.19
-69.46
-71.24
-72.00
-73.11
-75.53
-79.93
-86.39
-93.75
-99.19
-98.77
-88.83
-67.93
-38.48
-6.22
22.31
41.91
50.89
51.22
46.80
41.29
36.43
32.06
27.27
21.74
16.15
11.69
9.12
8.12
7.43
5.53
1.30
-5.19
-12.77
-19.73
-24.60
-26.61
-25.85
-23.18
-19.71
-16.29
-13.08
-9.66
-5.35
0.32
7.34
15.11
22.62
28.79
32.91
34.87
35.13
34.55
34.00
33.97
34.37
34.64
34.06
32.25
29.23
25.67
22.70
21.43
22.35
24.95
27.95
29.60
28.66
24.53
17.79
10.01
2.92
-2.39
-6.12
-9.21
-13.54
-19.81
-27.64
-35.27
-40.31
-40.58
-35.17
-24.52
-9.16
7.88
25.03
39.22
46.06
41.67
25.66
2.77
-18.13
-25.91
-16.76
7.59
39.60
69.17
88.26
93.92
87.94
70.94
49.08
25.17
0.08
-25.82
-51.21
-73.44
-89.79
-99.00
-102.77
-102.73
-101.34
-99.44
-96.49
-91.25
-82.17
-68.42
-51.28
-33.04
-14.74
3.10
21.46
41.77
64.55
89.35
114.24
135.37
149.00
154.15
152.26
146.84
142.24
142.31
144.36
147.95
151.89
153.64
149.67
135.30
106.51
62.44
0.80
-68.21
-126.67
-160.88
-169.91
-163.15
-152.56
-145.38
-141.08
-134.68
-120.86
-96.01
-60.09
-16.67
29.57
74.46
115.64
153.36
187.37
217.09
233.78
230.31
201.22
145.61
68.73
-22.07
-107.40
-167.27
-192.34
-188.18
-167.92
-144.60
-125.24
-110.73
-98.61
-85.70
-71.92
-59.28
-49.93
-43.84
-39.86
-35.99
-30.64
-23.11
-13.13
-2.72
6.16
11.57
13.08
10.84
5.17
-3.69
-15.68
-30.03
-47.27
-67.93
-91.01
-112.49
-126.25
-126.27
-109.45
-77.68
-37.43
1.95
32.28
49.59
55.05
53.12
48.58
44.29
40.57
36.73
32.09
27.17
23.19
21.01
20.28
19.46
16.79
10.74
1.43
-9.54
-19.43
-25.45
-26.10
-21.29
-12.27
-0.79
11.18
22.49
32.63
41.87
50.29
57.24
61.30
59.65
51.92
38.77
22.67
5.67
-9.26
-19.42
-23.12
-19.99
-10.85
2.28
15.95
26.24
29.96
26.48
18.08
9.25
4.72
7.50
17.66
32.31
47.40
59.31
65.86
66.17
60.27
48.85
33.15
14.95
-3.92
-21.70
-37.07
-49.03
-56.83
-59.50
-56.63
-48.84
-37.97
-26.79
-17.78
-12.15
-9.52
-8.52
-7.68
-5.96
-2.72
2.62
10.63
21.42
34.12
47.06
58.40
67.07
73.13
77.43
80.64
82.64
82.49
79.33
73.17
65.04
56.32
47.75
39.07
29.36
18.15
6.09
-4.81
-12.25
-14.82
-12.82
-8.13
-3.31
-0.61
-1.40
-6.21
-14.72
-25.83
-37.52
-47.17
-52.43
-52.56
-49.34
-46.82
-49.61
-60.31
-77.73
-97.01
-111.70
-116.73
-110.63
-95.78
-76.74
-57.73
-40.71
-25.27
-9.96
5.71
20.18
30.38
33.39
28.51
18.11
6.88
-0.31
-0.60
5.64
15.18
23.71
27.70
25.73
18.34
7.26
-5.62
-18.56
-29.93
-37.89
-40.47
-36.06
-24.33
-6.85
13.00
31.19
44.64
52.41
55.72
56.90
57.76
58.56
58.03
54.20
46.42
36.42
27.93
24.63
28.15
37.14
48.17
57.76
63.17
63.78
60.29
53.38
42.39
25.68
2.61
-24.24
-48.65
-63.98
-65.37
-52.25
-29.09
-4.20
13.45
18.11
9.54
-7.55
-28.42
-49.97
-71.78
-95.20
-121.91
-152.75
-187.12
-223.40
-248.35
-251.98
-231.93
-195.50
-153.68
-114.17
-79.30
-48.23
-19.54
7.42
30.54
47.32
56.69
60.06
60.52
61.10
63.52
67.76
72.76
75.80
74.83
69.58
61.70
53.66
47.29
43.23
41.30
41.12
41.59
41.74
41.04
39.45
37.30
34.89
32.47
30.35
28.97
28.28
28.08
28.15
28.45
29.12
30.37
32.31
35.20
39.25
44.38
50.20
55.98
61.05
64.62
65.96
64.54
60.18
53.04
43.59
32.51
20.81
9.19
-1.72
-11.34
-19.27
-25.28
-29.33
-31.56
-32.19
-31.63
-30.30
-28.59
-26.75
-24.94
-23.24
-21.68
-20.26
-18.84
-17.46
-16.12
-14.82
-13.58
-12.38
-11.24
-10.15
-9.36
-8.63
-7.94
-7.29
-6.70
-6.17
-5.69
-5.28
-4.92
-4.62
-4.33
-4.09
-3.89
-3.75
-3.67
-3.67
-3.76
-3.94
-4.24
-4.61
-5.11
-5.71
-6.41
-7.23
-8.19
-9.28
-10.51
-11.91
-13.43
-15.15
-16.97
-18.87
-20.86
-22.96
-25.13
-27.38
-29.73
-32.20
-34.94
-37.84
-41.02
-44.61
-48.77
-53.54
-58.85
-64.59
-70.37
-76.21
-80.91
-83.53
-83.20
-79.20
-71.11
-58.86
-42.81
-22.96
-1.22
21.02
42.41
61.81
78.36
91.66
101.72
108.88
113.62
116.28
117.50
117.56
116.47
113.89
109.46
102.72
93.27
80.87
65.50
47.66
28.16
8.03
-11.71
-30.06
-46.01
-58.79
-67.77
-72.63
-73.31
-69.87
-62.62
-52.22
-39.53
-25.54
-11.34
2.05
13.66
22.81
29.17
32.92
34.57
35.01
35.25
35.91
37.62
40.92
46.04
52.96
61.42
70.74
80.39
90.02
98.73
106.44
113.55
120.65
128.45
137.42
147.49
158.38
169.58
179.11
185.73
188.91
189.01
186.96
183.89
180.83
178.91
179.33
180.57
181.86
183.74
187.60
194.55
204.48
215.51
224.23
231.53
231.74
220.59
197.14
163.40
122.72
77.64
29.38
-21.56
-74.58
-135.69
-207.87
-288.42
-371.01
-448.47
-516.27
-573.29
-620.79
-660.39
-702.33
-753.27
-812.53
-875.12
-934.43
-986.66
-1031.88
-1072.57
-1058.54
-965.36
-802.26
-607.26
-422.97
-272.55
-157.08
-65.36
15.98
97.15
172.61
226.14
257.39
271.35
277.33
285.24
302.34
332.29
376.99
429.25
482.40
535.09
585.59
632.98
674.73
706.26
711.67
681.55
612.85
513.98
401.23
290.08
192.09
112.85
52.77
9.21
-19.93
-39.06
-52.30
-62.16
-70.42
-77.36
-82.92
-87.02
-89.49
-88.79
-84.40
-76.64
-66.30
-55.01
-44.25
-35.30
-29.38
-27.26
-28.56
-32.62
-38.93
-47.19
-57.40
-69.29
-82.34
-95.89
-109.29
-121.79
-132.96
-142.72
-151.45
-159.49
-166.80
-172.72
-177.02
-177.83
-173.36
-161.95
-142.89
-116.37
-83.41
-45.69
-5.36
35.30
73.41
106.61
133.47
153.34
166.25
172.94
174.46
171.99
166.71
159.73
151.87
143.68
135.39
127.02
118.68
110.38
102.03
93.69
85.48
77.55
70.06
63.04
56.40
50.24
44.47
39.04
33.91
29.07
24.53
20.34
17.00
14.09
11.49
9.14
7.00
5.04
3.25
1.63
0.20
-1.04
-2.18
-3.16
-3.98
-4.65
-5.18
-5.59
-5.87
-6.04
-6.08
-6.06
-5.96
-5.75
-5.45
-5.06
-4.60
-4.07
-3.48
-2.86
-2.21
-1.53
-0.82
-0.05
0.72
1.49
2.24
2.98
3.75
4.68
5.88
7.54
9.99
13.44
18.09
24.02
31.07
39.31
48.01
56.20
62.82
66.99
67.84
64.67
57.24
45.50
29.07
9.58
-11.71
-33.61
-54.80
-73.97
-90.23
-102.60
-110.77
-114.41
-113.55
-108.62
-100.21
-89.16
-76.31
-62.82
-49.65
-37.98
-28.48
-21.63
-17.81
-16.95
-18.66
-22.29
-26.93
-31.57
-35.39
-37.57
-37.53
-35.18
-30.63
-24.41
-17.23
-9.92
-3.20
2.12
5.59
7.16
6.63
4.31
0.36
-4.76
-10.62
-16.91
-23.43
-29.89
-36.02
-41.97
-47.77
-53.75
-60.15
-67.10
-74.76
-83.35
-92.40
-101.56
-110.57
-119.15
-127.08
-134.24
-140.61
-146.38
-152.08
-157.55
-162.94
-168.45
-174.03
-179.27
-183.19
-184.10
-179.61
-172.24
-162.11
-149.25
-133.77
-115.88
-96.00
-74.71
-52.60
-30.56
-9.74
9.50
26.64
41.47
54.25
65.71
76.91
89.20
103.34
119.26
136.79
155.20
173.53
191.05
207.30
222.18
236.49
250.80
265.49
281.50
299.83
320.95
344.03
366.78
386.19
401.01
410.37
414.22
413.73
410.71
406.52
401.42
394.84
386.35
378.38
372.32
368.17
365.34
363.25
361.26
358.47
353.79
345.84
335.51
320.59
296.12
256.95
200.16
125.80
36.62
-62.09
-179.39
-304.26
-414.51
-490.46
-525.66
-525.59
-501.21
-463.79
-421.94
-381.22
-341.43
-302.27
-264.48
-226.78
-187.96
-148.57
-111.57
-81.07
-61.80
-55.14
-61.32
-78.43
-101.38
-117.91
-115.52
-91.53
-50.29
-2.23
40.41
65.32
63.81
34.45
-13.80
-64.85
-100.95
-108.02
-80.76
-23.41
51.17
126.03
186.13
222.88
234.52
224.89
200.83
168.47
131.34
90.60
46.49
0.82
-41.78
-76.26
-99.11
-110.29
-113.04
-111.83
-109.55
-106.30
-100.83
-91.75
-80.98
-72.94
-72.45
-82.17
-101.29
-126.41
-154.00
-183.36
-214.58
-249.54
-287.91
-325.27
-353.38
-363.04
-348.14
-308.43
-251.56
-187.59
-130.64
-93.01
-81.76
-95.97
-126.74
-160.19
-182.38
-186.02
-167.89
-134.04
-93.99
-55.94
-23.08
6.30
34.90
73.10
101.57
114.89
106.39
74.19
22.59
-37.57
-92.38
-129.21
-140.07
-124.38
-82.67
-20.87
53.11
129.78
200.45
256.93
291.40
297.31
270.54
215.63
141.37
59.89
-17.98
-83.27
-130.77
-159.15
-169.12
-161.68
-135.14
-89.44
-24.89
44.17
96.45
117.14
106.00
73.02
29.75
-14.88
-57.32
-95.60
-133.31
-169.85
-201.11
-222.69
-232.67
-232.18
-223.60
-209.43
-191.70
-171.70
-147.81
-117.14
-77.89
-30.86
20.83
72.98
121.76
164.48
199.64
228.51
253.85
278.39
303.52
328.74
351.74
368.86
375.99
369.80
349.80
318.47
280.40
240.68
203.53
171.45
145.26
124.73
109.36
99.16
94.25
94.29
97.98
103.19
107.60
109.41
107.65
102.52
95.13
86.87
78.81
71.34
64.11
56.49
47.83
37.85
26.72
14.93
3.07
-8.50
-19.71
-30.57
-40.79
-49.82
-57.09
-62.13
-64.59
-64.16
-60.77
-54.76
-46.87
-38.04
-29.39
-22.55
-18.88
-18.63
-20.43
-21.98
-21.00
-15.93
-5.85
8.70
24.76
38.26
45.97
46.98
42.55
35.30
28.60
26.83
33.06
46.58
63.90
81.16
96.19
108.01
115.54
117.35
113.27
102.01
78.97
38.09
-24.95
-109.73
-211.78
-324.34
-439.51
-547.00
-620.17
-634.45
-584.43
-490.51
-383.33
-286.10
-208.81
-156.61
-115.36
-72.37
-21.72
37.06
102.49
174.80
251.41
326.12
378.99
392.19
359.96
293.14
212.04
135.55
75.12
33.13
6.17
-10.02
-15.68
-10.20
4.09
20.57
31.05
30.15
16.98
-4.14
-25.05
-35.27
-27.42
-0.10
41.64
88.16
128.96
154.53
160.06
146.68
121.50
94.07
72.39
59.95
54.99
53.10
48.20
36.32
15.80
-14.12
-54.45
-105.76
-166.91
-234.19
-300.52
-358.84
-400.85
-418.42
-405.62
-359.52
-281.01
-175.50
-53.10
80.05
201.91
287.27
324.48
320.94
293.53
255.71
216.22
169.43
110.12
36.84
-45.25
-127.74
-204.85
-271.22
-318.51
-342.53
-344.05
-326.76
-296.58
-257.40
-211.29
-160.28
-107.61
-58.45
-18.35
8.60
21.49
23.95
22.01
23.47
35.93
63.56
103.42
146.33
181.30
201.67
207.92
207.80
206.98
206.59
207.43
206.10
197.54
179.71
156.08
133.30
116.38
105.50
96.97
86.79
72.57
55.37
38.73
25.90
17.97
13.00
8.16
-0.12
-12.88
-29.49
-47.80
-64.62
-77.15
-83.70
-84.55
-82.14
-79.67
-79.92
-84.47
-92.98
-102.84
-110.68
-113.80
-109.69
-98.77
-83.42
-67.06
-52.48
-40.97
-31.35
-21.17
-7.68
11.04
35.13
63.14
92.22
118.85
139.39
151.44
154.01
147.90
135.51
119.77
103.22
86.84
70.04
50.50
25.98
-4.56
-41.17
-82.34
-123.43
-158.06
-180.93
-189.36
-184.18
-167.51
-141.73
-110.34
-77.24
-46.64
-16.57
16.65
56.17
101.13
148.34
193.59
231.65
256.24
261.97
239.09
183.81
99.46
-6.35
-120.53
-223.86
-294.49
-320.38
-303.88
-256.35
-198.03
-133.47
-66.43
-2.42
51.28
86.54
95.60
79.09
45.71
15.25
6.72
20.84
41.49
48.99
34.55
5.10
-21.26
-27.68
-9.39
23.38
49.87
55.57
38.85
10.38
-14.52
-23.05
-10.70
17.86
52.13
80.37
93.79
90.15
79.05
68.88
64.06
64.94
68.16
71.58
73.86
75.47
78.13
82.86
87.87
89.50
84.07
69.88
48.31
22.97
-1.24
-19.49
-28.82
-29.63
-24.62
-17.46
-11.42
-8.24
-8.19
-10.65
-14.61
-19.39
-25.11
-31.63
-37.76
-41.35
-39.93
-32.36
-19.76
-5.07
8.17
16.85
19.25
15.15
5.29
-8.80
-25.57
-43.85
-62.62
-80.82
-97.39
-111.48
-122.56
-130.41
-134.27
-133.91
-130.36
-125.47
-120.99
-117.90
-116.58
-117.06
-119.18
-121.11
-120.93
-117.83
-112.03
-104.25
-95.58
-87.66
-82.47
-81.05
-80.43
-75.19
-59.56
-28.95
18.95
82.88
157.31
232.66
287.57
305.10
285.49
243.20
195.43
155.29
129.66
119.10
118.97
121.96
123.13
118.37
104.32
79.27
44.57
4.94
-32.74
-61.66
-77.46
-72.40
-47.01
-9.81
25.81
47.34
47.78
27.78
-5.51
-41.61
-69.80
-84.26
-84.84
-75.89
-63.41
-52.61
-46.58
-46.21
-50.60
-57.35
-64.49
-70.22
-73.11
-72.20
-67.53
-60.39
-53.01
-47.55
-44.90
-44.87
-46.02
-46.60
-45.48
-42.92
-40.31
-39.43
-41.51
-46.80
-54.82
-64.66
-75.52
-86.95
-98.72
-110.30
-120.67
-128.45
-132.48
-132.09
-126.86
-116.03
-98.18
-71.56
-35.22
9.68
59.36
108.39
151.50
185.37
209.32
224.65
233.02
235.27
231.09
219.83
201.73
178.60
153.39
129.18
108.07
90.60
76.07
63.36
51.74
41.39
33.12
27.68
25.07
24.21
23.23
20.36
14.80
7.16
-0.82
-7.22
-10.95
-12.14
-12.02
-12.03
-13.06
-15.15
-17.69
-19.97
-21.62
-22.70
-23.46
-24.15
-24.77
-25.21
-25.27
-24.83
-23.80
-22.08
-19.63
-16.52
-13.02
-9.57
-6.62
-4.50
-3.30
-2.91
-3.12
-3.61
-4.16
-4.51
-4.51
-4.14
-3.40
-2.41
-1.40
-0.73
-0.61
-0.99
-1.54
-1.87
-1.74
-1.12
-0.19
0.82
1.74
2.61
3.63
5.01
6.55
7.80
8.39
8.24
7.56
6.67
6.03
6.08
7.20
8.76
9.85
9.94
9.27
8.60
8.62
9.83
12.45
16.48
20.18
21.67
20.31
17.23
14.26
12.66
13.00
15.42
19.94
24.07
25.04
21.73
15.46
8.60
2.78
-1.42
-4.14
-6.00
-11.08
-23.82
-46.46
-78.21
-117.58
-164.44
-219.77
-284.00
-335.08
-351.15
-324.66
-268.10
-200.62
-135.69
-79.65
-34.27
1.35
29.36
48.92
58.63
58.90
53.17
45.81
39.93
36.85
36.91
39.95
43.05
42.77
37.11
26.97
15.51
6.96
5.85
15.56
36.10
61.44
82.17
90.33
83.95
67.42
49.26
36.44
32.20
35.08
40.41
44.64
47.82
53.00
62.04
72.77
79.29
75.88
60.85
37.98
15.04
-0.55
-5.24
-1.09
6.61
13.14
17.20
20.79
26.93
37.54
50.33
63.28
73.80
79.96
80.79
76.23
66.77
52.90
35.67
17.03
-0.11
-13.10
-19.78
-20.13
-15.34
-8.47
-4.25
-7.24
-19.52
-38.93
-59.95
-75.70
-80.81
-73.80
-57.87
-39.45
-25.04
-17.92
-17.82
-22.49
-29.70
-38.37
-48.44
-59.19
-69.52
-77.81
-81.00
-76.78
-65.57
-50.92
-37.71
-29.90
-29.27
-34.96
-43.90
-50.39
-49.18
-38.70
-21.69
-2.96
13.09
23.87
28.86
29.36
29.94
36.73
54.29
84.56
127.37
181.02
241.96
305.09
348.43
353.91
322.69
272.17
219.53
172.33
131.48
96.29
66.56
41.83
20.34
-0.50
-27.65
-67.07
-119.86
-180.75
-240.64
-291.09
-315.41
-310.24
-281.67
-240.66
-197.07
-156.54
-120.62
-89.26
-62.93
-43.07
-31.30
-26.37
-25.55
-25.28
-22.13
-14.15
-1.11
15.20
31.57
44.71
53.28
56.54
53.91
44.82
29.98
12.05
-3.95
-12.46
-9.02
7.66
32.80
58.64
77.86
86.72
85.24
75.67
59.59
38.35
12.90
-17.34
-50.78
-83.56
-111.31
-133.38
-147.96
-157.97
-165.29
-169.17
-167.73
-155.40
-125.88
-75.67
-8.34
66.48
125.51
150.27
149.39
133.33
111.15
84.56
58.91
39.34
29.92
32.16
46.28
68.84
90.81
103.41
101.79
86.96
63.40
37.12
12.65
-6.53
-19.06
-27.04
-32.25
-35.21
-35.16
-31.90
-26.16
-19.39
-12.23
-4.66
2.60
9.32
15.49
21.36
26.38
29.79
30.88
29.76
27.08
23.23
18.72
14.21
10.49
8.00
6.99
7.37
9.02
11.37
13.12
12.77
9.19
2.34
-6.70
-15.89
-23.36
-28.11
-30.49
-31.88
-33.89
-37.74
-44.00
-52.91
-64.68
-79.62
-97.68
-117.93
-138.39
-156.51
-170.04
-177.63
-178.89
-173.94
-162.95
-146.30
-125.23
-102.50
-82.15
-68.33
-63.63
-67.80
-77.86
-89.26
-97.56
-99.67
-94.48
-82.63
-66.25
-48.41
-32.45
-20.74
-13.82
-10.02
-6.50
-1.18
5.63
10.90
10.51
1.70
-14.80
-34.87
-52.83
-63.88
-65.90
-59.35
-46.04
-27.67
-5.13
21.19
50.53
81.15
110.71
136.93
158.70
176.06
189.98
201.53
211.15
218.46
222.40
221.85
215.90
204.20
187.09
165.65
141.83
118.12
97.17
80.91
70.07
63.87
60.53
58.07
54.99
50.74
45.49
39.68
33.53
26.96
19.88
12.56
5.83
0.82
-1.56
-1.19
1.43
5.37
9.64
13.70
17.58
21.84
27.19
33.96
41.66
49.25
55.59
59.85
61.93
62.45
62.44
62.93
64.19
65.57
66.20
65.72
64.49
63.43
63.66
66.18
71.88
80.34
89.82
98.23
103.86
105.49
102.38
94.30
81.84
67.22
51.19
32.72
10.76
-14.09
-39.51
-61.80
-76.58
-79.59
-66.08
-36.08
5.61
52.53
99.31
142.05
177.97
205.03
222.38
232.75
236.47
231.19
214.44
185.34
143.55
88.69
20.65
-72.31
-175.27
-257.91
-299.90
-302.62
-279.05
-242.84
-203.62
-167.41
-135.97
-105.85
-76.81
-50.96
-31.39
-19.22
-13.54
-13.06
-18.92
-31.49
-47.46
-65.29
-87.33
-113.31
-141.73
-169.79
-194.80
-217.42
-237.41
-251.24
-256.65
-255.21
-250.42
-244.73
-238.02
-209.20
-152.28
-80.46
-13.84
34.67
61.59
71.00
71.83
73.56
80.99
89.90
92.60
84.15
65.25
39.88
12.85
-10.67
-27.26
-37.36
-46.01
-58.11
-74.17
-89.42
-99.75
-104.01
-103.89
-98.56
-91.64
-82.04
-70.90
-66.81
-66.97
-64.02
-55.68
-41.40
-20.59
7.27
42.89
85.51
134.00
186.78
236.75
272.96
286.02
272.08
232.68
174.42
105.37
34.89
-27.20
-75.52
-108.80
-126.34
-127.12
-112.40
-87.48
-62.26
-45.38
-39.10
-40.04
-40.40
-29.82
0.29
51.72
118.41
177.89
204.23
188.50
143.69
89.29
37.67
-7.72
-48.18
-85.87
-120.69
-150.81
-170.31
-175.25
-166.89
-150.24
-131.41
-115.42
-105.13
-101.62
-102.89
-104.26
-101.90
-94.69
-83.43
-68.89
-51.13
-29.92
-5.31
22.34
51.94
80.26
102.48
113.85
112.07
97.89
75.10
49.42
27.35
14.57
13.52
22.68
37.48
53.41
68.34
83.46
101.84
125.52
153.81
182.69
206.58
219.73
219.77
209.05
193.40
178.80
168.19
161.86
158.73
158.57
160.81
166.41
176.89
193.32
213.76
231.64
239.15
230.20
203.16
158.02
97.90
26.51
-52.22
-136.11
-226.51
-323.02
-422.05
-501.19
-534.84
-511.55
-445.67
-361.72
-278.89
-210.08
-159.12
-124.16
-98.04
-77.50
-54.99
-25.43
15.67
70.22
132.40
195.84
255.28
311.70
343.75
341.92
308.87
257.64
211.65
167.55
118.95
61.02
-4.71
-80.84
-163.57
-248.13
-326.98
-376.39
-379.59
-336.87
-287.65
-242.03
-203.48
-163.94
-125.12
-91.38
-66.70
-56.20
-59.90
-72.39
-80.45
-75.58
-53.66
-15.77
26.70
57.63
67.69
57.63
32.39
-0.77
-35.67
-66.99
-92.38
-110.94
-121.87
-125.49
-122.62
-114.21
-99.10
-78.56
-55.19
-32.14
-11.00
9.82
33.86
64.42
102.99
149.23
198.66
243.08
272.72
279.30
259.40
216.56
160.29
103.67
59.80
36.89
35.12
47.28
61.82
67.49
58.19
33.86
-0.22
-35.34
-61.67
-70.99
-59.38
-29.25
10.87
51.19
82.85
100.25
101.80
89.46
67.19
38.75
7.03
-25.52
-52.14
-65.56
-62.22
-45.38
-22.87
-2.39
12.10
21.08
26.41
34.14
49.07
72.62
103.53
142.45
193.48
261.00
345.05
414.40
438.33
406.15
334.68
249.21
166.45
90.99
19.91
-51.15
-125.50
-197.67
-260.42
-307.39
-338.50
-358.47
-372.84
-385.94
-385.39
-370.55
-341.75
-301.39
-254.01
-205.89
-160.99
-118.77
-75.48
-28.81
17.82
61.15
99.24
132.27
160.93
187.77
216.02
247.23
277.27
296.68
297.87
277.89
238.32
183.38
118.88
50.95
-15.33
-78.24
-134.93
-182.21
-218.75
-247.40
-275.36
-310.76
-358.27
-399.04
-412.58
-387.06
-325.27
-239.54
-144.19
-51.51
29.68
94.76
144.80
182.42
207.87
221.46
224.87
220.55
210.78
197.66
182.99
162.72
134.71
98.74
58.54
21.83
-2.65
-9.04
2.87
26.88
52.20
66.86
62.08
36.08
-5.49
-52.66
-95.42
-127.06
-145.33
-151.67
-149.38
-141.53
-129.02
-110.76
-85.49
-53.68
-18.00
17.44
48.96
74.78
94.76
110.33
123.49
135.79
147.89
159.60
170.12
177.88
180.81
176.24
161.92
136.96
102.12
59.59
12.46
-35.90
-82.18
-123.17
-155.90
-178.21
-189.33
-190.38
-183.99
-173.52
-162.10
-151.70
-142.82
-134.60
-125.42
-113.96
-99.98
-84.55
-69.73
-57.67
-49.69
-45.79
-45.01
-46.20
-48.68
-52.32
-57.12
-62.66
-68.00
-71.84
-72.92
-70.46
-64.34
-54.85
-42.45
-27.61
-10.78
7.29
25.50
42.56
57.24
68.79
77.03
82.28
85.08
85.91
85.13
83.02
79.99
76.55
73.36
71.00
69.76
69.54
69.92
70.37
70.58
70.48
70.19
69.74
68.92
67.28
64.45
60.30
55.17
49.68
44.49
39.89
35.81
31.85
27.67
23.22
18.78
14.83
11.73
9.58
8.18
7.21
6.41
5.66
5.03
4.61
4.47
4.51
4.47
4.11
3.29
2.17
1.24
1.07
2.14
4.59
8.06
11.92
15.53
18.57
21.17
23.84
27.02
30.80
34.77
37.99
39.38
38.21
34.42
28.86
23.04
18.38
15.42
13.21
9.35
0.91
-14.03
-35.37
-60.90
-87.27
-111.77
-133.37
-152.65
-170.80
-188.64
-206.32
-223.72
-240.94
-257.68
-272.03
-279.38
-272.97
-246.61
-198.20
-132.24
-59.06
8.99
62.44
98.17
119.62
133.78
147.13
162.85
180.31
196.66
209.10
216.34
218.65
217.09
212.57
205.21
194.70
180.87
164.08
145.51
127.05
110.63
97.58
88.22
81.48
75.43
67.91
57.20
42.46
23.76
1.76
-22.70
-48.65
-74.69
-98.84
-118.66
-131.95
-137.68
-136.60
-131.18
-124.84
-120.63
-120.22
-123.52
-128.68
-132.90
-133.39
-128.28
-117.06
-100.37
-79.31
-54.76
-27.18
3.07
34.79
65.30
90.54
106.26
109.76
101.13
83.30
61.00
39.01
20.69
7.34
-1.37
-6.49
-9.03
-9.46
-8.08
-5.32
-2.12
-0.09
-1.01
-5.98
-14.88
-26.21
-37.45
-46.14
-50.69
-50.87
-47.68
-42.63
-36.94
-31.25
-25.58
-19.58
-12.94
-5.60
2.18
9.86
16.82
22.38
25.90
27.00
25.70
22.44
17.94
12.72
6.86
-0.11
-9.05
-20.73
-35.47
-52.83
-71.50
-89.47
-104.21
-112.92
-113.00
-102.74
-81.90
-52.17
-16.92
19.66
53.82
83.27
107.61
127.90
145.55
161.34
174.70
183.84
186.41
180.41
164.94
140.47
108.69
72.02
33.19
-5.12
-40.35
-70.10
-92.28
-105.33
-108.77
-103.35
-91.13
-74.85
-57.27
-40.30
-24.73
-10.34
3.49
17.26
31.00
44.34
56.89
68.49
79.39
90.06
100.90
112.00
123.12
133.84
143.70
152.28
159.12
163.52
164.64
161.63
153.94
141.64
125.50
106.71
86.56
66.05
45.64
25.36
4.90
-16.00
-37.36
-58.84
-79.83
-99.53
-117.14
-132.01
-143.67
-151.96
-156.90
-158.75
-157.90
-154.75
-149.69
-142.98
-134.89
-125.67
-115.69
-105.47
-95.56
-86.38
-78.05
-70.36
-62.81
-54.72
-45.37
-34.02
-19.96
-2.57
18.53
43.44
71.83
102.94
135.73
168.92
200.94
229.74
252.79
267.21
270.14
259.35
233.79
193.89
141.63
80.36
14.46
-51.07
-111.17
-161.45
-198.86
-222.14
-231.76
-229.43
-217.24
-197.19
-170.99
-140.37
-107.40
-74.63
-44.79
-20.15
-2.07
9.30
14.76
15.74
13.74
10.10
5.92
2.13
-0.48
-1.26
0.18
3.81
9.17
15.42
21.56
26.95
31.39
35.19
38.74
42.14
44.90
46.05
44.55
39.87
32.35
23.07
13.45
4.64
-2.92
-9.48
-15.64
-21.86
-28.22
-34.40
-40.14
-45.43
-50.62
-56.34
-63.12
-71.15
-80.25
-90.01
-99.96
-109.75
-118.97
-127.01
-132.91
-135.40
-133.05
-124.59
-109.43
-87.94
-61.72
-33.32
-5.59
19.04
39.29
55.17
67.59
77.67
86.17
93.21
98.52
101.88
103.41
103.61
103.03
101.92
100.27
97.96
95.02
91.76
88.65
86.00
83.76
81.52
78.68
74.84
69.99
64.53
59.06
54.14
49.99
46.57
43.61
40.76
37.82
34.66
31.29
27.76
24.15
20.50
16.75
12.82
8.62
4.19
-0.24
-4.32
-7.65
-9.99
-11.37
-12.13
-12.86
-14.14
-16.35
-19.70
-24.15
-29.60
-36.04
-43.47
-51.77
-60.55
-69.13
-76.63
-82.38
-86.09
-88.02
-88.84
-89.14
-89.12
-88.44
-86.37
-82.27
-75.96
-67.83
-58.71
-49.65
-41.48
-34.72
-29.61
-26.16
-24.30
-23.95
-24.93
-26.89
-29.50
-32.43
-35.41
-38.30
-40.90
-42.88
-43.73
-42.88
-39.82
-34.31
-26.38
-16.41
-5.00
7.09
18.95
29.62
38.21
44.06
46.92
47.08
45.26
42.37
39.32
36.76
34.99
33.90
32.98
31.56
29.17
25.77
21.79
18.03
15.17
13.63
13.30
13.75
14.44
14.98
15.27
15.39
15.54
15.90
16.62
17.80
19.29
20.60
20.86
19.10
14.66
7.54
-1.54
-11.29
-20.22
-27.02
-30.88
-31.53
-29.25
-24.74
-18.99
-13.19
-8.51
-5.82
-5.45
-7.12
-10.13
-13.59
-16.68
-18.86
-19.94
-19.92
-18.96
-17.17
-14.69
-11.74
-8.59
-5.56
-2.89
-0.58
1.56
3.79
6.35
9.28
12.42
15.63
18.83
22.07
25.53
29.35
33.44
37.56
41.26
44.00
45.32
44.86
42.57
38.77
34.17
29.63
25.98
23.72
22.81
22.85
23.27
23.63
23.67
23.36
22.65
21.48
19.79
17.58
15.04
12.39
9.77
7.08
4.07
0.47
-3.71
-8.11
-12.05
-14.83
-16.01
-15.59
-14.00
-11.85
-9.78
-8.14
-7.10
-6.59
-6.44
-6.51
-6.70
-6.92
-7.00
-6.72
-5.80
-4.02
-1.34
2.03
5.63
8.88
11.26
12.43
12.38
11.33
9.71
7.90
6.11
4.35
2.40
0.03
-2.83
-5.96
-8.86
-10.84
-11.36
-10.26
-7.82
-4.69
-1.63
0.68
1.75
1.35
-0.53
-3.74
-8.00
-12.90
-18.01
-22.83
-26.94
-30.01
-31.78
-32.14
-31.08
-28.74
-25.32
-21.05
-16.07
-10.45
-4.31
2.08
8.26
13.62
17.63
20.05
20.92
20.60
19.58
18.42
17.63
17.62
18.68
20.83
23.85
27.22
30.33
32.58
33.60
33.32
31.89
29.59
26.71
23.49
20.15
16.89
13.98
11.71
10.46
10.58
12.31
15.70
20.45
25.92
31.22
35.36
37.45
36.89
33.42
27.08
18.11
6.91
-6.02
-20.03
-34.40
-48.37
-61.23
-72.46
-81.70
-88.76
-93.60
-96.23
-96.69
-94.99
-91.13
-85.04
-76.71
-66.19
-53.72
-39.84
-25.24
-10.72
3.00
15.40
26.14
35.02
41.99
47.05
50.24
51.73
51.76
50.58
48.50
45.79
42.65
39.25
35.74
32.19
28.63
25.00
21.24
17.41
13.66
10.31
7.69
6.02
5.32
5.44
6.04
6.82
7.55
8.07
8.34
8.33
8.02
7.43
6.60
5.60
4.50
3.24
1.64
-0.58
-3.80
-8.40
-14.61
-22.50
-31.89
-42.39
-53.48
-64.47
-74.54
-82.79
-88.28
-90.15
-87.80
-81.08
-70.32
-56.32
-40.11
-22.78
-5.32
11.40
26.67
39.86
50.60
58.80
64.72
68.76
71.43
73.04
73.67
73.20
71.45
68.41
64.25
59.33
53.97
48.35
42.45
36.05
28.92
20.93
12.21
3.14
-5.70
-13.75
-20.50
-25.67
-29.20
-31.15
-31.76
-31.32
-30.18
-28.68
-27.13
-25.69
-24.38
-23.08
-21.58
-19.72
-17.52
-15.13
-12.86
-11.01
-9.76
-9.13
-9.02
-9.23
-9.55
-9.73
-9.53
-8.75
-7.20
-4.77
-1.43
2.65
7.16
11.61
15.54
18.59
20.55
21.48
21.63
21.37
21.02
20.77
20.57
20.18
19.30
17.59
14.82
10.83
5.56
-0.96
-8.57
-16.89
-25.34
-33.19
-39.86
-45.03
-48.70
-51.02
-52.14
-51.94
-50.18
-46.77
-41.90
-36.24
-30.66
-25.93
-22.39
-19.84
-17.63
-15.04
-11.57
-7.08
-1.83
3.71
8.97
13.54
17.31
20.49
23.50
26.71
30.31
34.17
37.89
40.93
42.84
43.40
42.71
41.20
39.48
38.21
37.87
38.57
39.93
41.06
40.89
38.46
33.32
25.61
15.94
5.11
-6.12
-17.27
-28.08
-38.39
-48.05
-56.79
-64.26
-70.17
-74.26
-76.41
-76.63
-75.09
-72.04
-67.79
-62.63
-56.84
-50.71
-44.50
-38.48
-32.83
-27.68
-23.09
-19.04
-15.38
-11.90
-8.21
-3.88
1.39
7.53
14.03
20.14
25.18
28.95
31.85
34.63
37.86
41.58
45.26
48.17
49.83
50.39
50.50
51.02
52.59
55.30
58.72
62.16
64.98
66.76
67.44
67.15
66.12
64.61
62.69
60.23
56.88
52.16
45.51
36.47
24.80
10.59
-5.70
-23.32
-41.32
-58.56
-74.07
-87.14
-97.44
-105.03
-110.08
-112.61
-112.49
-109.35
-102.94
-93.41
-81.49
-68.34
-55.36
-43.74
-33.99
-25.83
-18.38
-10.53
-1.39
9.34
21.28
33.62
45.52
56.50
66.42
74.96
81.55
85.25
85.23
81.14
73.37
63.14
52.19
42.39
35.11
31.45
32.16
37.61
47.38
60.16
73.88
86.34
95.78
100.41
99.68
94.44
86.22
76.23
64.67
50.55
32.76
10.65
-17.23
-50.54
-86.38
-119.82
-145.84
-160.55
-162.92
-153.89
-136.19
-116.51
-100.65
-91.32
-87.98
-88.95
-92.62
-99.62
-110.75
-126.69
-151.03
-184.85
-225.21
-266.13
-301.84
-328.43
-346.13
-355.97
-337.37
-280.98
-195.24
-101.28
-16.48
48.24
100.32
144.33
182.58
217.09
242.72
256.59
259.59
255.51
247.92
239.26
228.85
216.27
201.89
183.96
162.42
139.24
117.59
99.79
86.87
77.42
70.29
64.90
59.22
52.19
44.07
36.18
29.67
25.41
22.93
21.81
21.70
21.24
19.47
16.19
11.92
7.36
3.24
-0.36
-3.42
-6.00
-8.61
-11.54
-14.78
-17.99
-20.69
-22.50
-23.43
-23.69
-23.69
-23.94
-24.75
-26.20
-28.07
-29.95
-31.46
-32.41
-32.95
-33.43
-34.28
-35.61
-37.09
-38.05
-37.66
-35.28
-30.68
-24.12
-16.16
-7.58
0.89
8.71
15.65
21.93
28.18
35.34
44.16
54.89
66.97
79.22
90.29
99.24
105.90
110.77
114.59
117.87
120.63
122.44
122.80
121.38
118.05
112.64
104.71
93.53
78.38
58.69
34.44
6.64
-22.85
-51.82
-78.40
-101.51
-121.05
-137.62
-152.21
-165.71
-178.27
-189.31
-197.84
-203.03
-204.24
-200.82
-191.92
-176.83
-155.05
-126.55
-92.27
-54.25
-15.77
19.96
50.92
76.94
98.25
115.19
127.89
136.01
138.95
135.51
125.46
110.22
92.86
74.85
56.43
37.22
17.22
-2.63
-22.04
-39.95
-54.67
-63.94
-69.27
-74.03
-81.74
-94.24
-111.39
-133.40
-158.86
-184.57
-205.39
-219.89
-228.50
-232.45
-232.38
-215.52
-176.91
-122.82
-75.76
-38.66
-9.88
14.66
36.18
55.77
74.39
90.62
103.36
112.75
121.31
128.66
133.39
134.07
130.44
123.17
111.98
97.60
82.10
69.42
60.93
56.51
55.20
56.08
58.15
59.50
58.94
56.64
54.66
54.17
55.82
59.76
65.88
73.73
82.15
90.13
96.95
102.13
104.24
101.65
93.39
79.86
63.28
47.03
35.14
31.02
36.50
51.21
73.28
100.15
128.85
156.05
177.82
190.28
190.30
176.14
148.67
111.49
70.09
30.17
-3.77
-28.81
-43.34
-46.98
-41.83
-30.71
-15.92
1.72
22.37
46.33
73.46
102.95
132.94
158.04
172.63
173.11
158.46
128.45
82.59
21.18
-53.27
-135.52
-222.63
-310.69
-392.93
-459.68
-501.75
-513.65
-494.36
-447.45
-380.82
-311.33
-257.00
-230.36
-235.25
-269.40
-327.76
-403.59
-489.01
-541.28
-527.68
-446.96
-330.45
-213.18
-113.32
-33.47
30.95
85.48
133.76
171.36
192.59
196.04
186.97
171.58
154.05
136.92
122.14
111.73
102.85
90.06
71.75
48.41
22.26
-5.89
-34.91
-62.75
-86.87
-107.71
-126.31
-140.73
-146.58
-139.26
-116.18
-77.63
-26.72
31.34
89.39
141.07
182.79
213.51
233.88
245.30
249.38
247.86
242.84
236.10
228.98
222.34
215.97
209.23
201.90
193.69
183.99
172.34
158.83
144.19
129.55
116.07
104.98
98.24
96.33
98.12
102.12
107.80
115.23
124.49
135.37
147.81
163.27
181.18
198.45
211.34
217.50
216.45
209.33
198.53
187.35
180.77
180.10
182.16
181.52
173.20
153.35
119.41
71.04
-3.98
-96.40
-180.36
-232.84
-248.41
-235.66
-207.82
-176.23
-149.36
-126.15
-101.45
-73.06
-43.18
-16.55
2.72
12.04
8.98
-7.48
-36.90
-76.66
-124.68
-178.66
-234.07
-283.52
-319.76
-339.95
-347.87
-352.26
-361.95
-382.94
-415.32
-452.85
-485.56
-504.79
-506.84
-493.29
-468.23
-434.89
-394.92
-348.82
-297.28
-241.57
-183.93
-126.95
-72.13
-18.72
36.47
97.53
167.29
245.02
326.30
403.90
469.84
517.96
545.87
555.30
550.62
536.87
517.49
495.10
472.30
451.79
434.95
420.32
403.10
376.54
334.82
275.33
201.14
120.08
41.93
-24.79
-73.91
-100.69
-101.12
-72.42
-23.36
29.62
66.50
74.69
52.77
7.27
-51.01
-110.18
-160.48
-196.91
-218.35
-226.56
-224.60
-216.06
-204.48
-193.12
-185.64
-182.97
-184.97
-188.41
-187.76
-177.10
-153.81
-120.59
-85.56
-59.28
-49.76
-60.64
-89.18
-128.08
-168.66
-204.70
-231.94
-249.11
-257.45
-257.78
-251.77
-240.76
-225.25
-204.26
-175.88
-137.93
-89.15
-29.68
41.24
121.37
205.66
287.36
360.11
419.47
463.36
491.58
505.19
508.51
503.60
490.20
467.67
437.39
404.04
373.80
351.60
318.31
264.91
193.21
113.69
37.40
-28.46
-80.16
-117.09
-141.69
-158.00
-168.07
-175.42
-182.53
-190.68
-200.39
-210.89
-221.08
-229.52
-234.28
-232.95
-225.85
-216.60
-206.50
-200.63
-204.59
-223.60
-258.53
-299.00
-330.88
-343.05
-332.85
-303.83
-263.74
-220.49
-183.40
-160.48
-150.82
-152.29
-162.11
-175.71
-183.69
-177.87
-154.27
-115.78
-65.78
-8.11
52.27
109.09
157.23
198.89
238.40
279.45
318.96
357.55
396.16
433.98
467.28
465.40
412.88
317.14
230.79
163.52
113.47
66.99
20.34
-27.23
-74.45
-114.47
-140.93
-151.16
-150.57
-140.55
-121.61
-94.07
-60.79
-25.46
12.23
52.82
95.06
131.84
159.57
176.17
182.04
178.82
170.71
165.73
170.79
187.53
208.80
225.38
227.18
206.58
159.90
89.46
4.26
-83.03
-159.43
-215.59
-245.46
-248.37
-228.87
-195.56
-157.79
-122.40
-92.95
-70.32
-54.79
-46.35
-45.04
-50.11
-59.23
-68.51
-73.63
-71.85
-63.21
-50.60
-38.20
-29.34
-24.87
-23.15
-21.31
-17.01
-9.77
-1.00
6.96
12.30
14.57
14.70
14.15
14.12
15.04
16.54
17.96
18.67
18.30
16.79
14.26
11.13
8.02
5.62
4.42
4.52
5.46
6.50
6.98
6.56
5.20
3.14
0.62
-2.30
-5.61
-9.37
-13.32
-16.62
-18.03
-16.39
-11.20
-2.94
6.82
16.17
23.46
27.98
30.48
32.73
36.50
42.71
50.96
59.35
65.24
66.08
60.05
46.75
27.38
4.12
-20.39
-43.37
-63.83
-78.91
-85.29
-81.61
-68.58
-48.26
-23.87
1.01
23.60
42.00
58.14
74.27
91.68
110.44
129.20
144.95
154.31
154.69
144.05
113.22
62.49
-0.84
-64.91
-117.63
-151.44
-168.44
-173.01
-170.57
-166.22
-162.28
-159.22
-156.03
-147.96
-132.85
-110.48
-81.92
-49.78
-16.92
15.37
46.11
74.12
97.58
113.56
119.60
115.13
101.25
80.63
57.15
33.96
12.72
-6.39
-24.64
-43.12
-61.69
-79.14
-93.34
-101.71
-102.50
-95.40
-81.54
-63.18
-42.48
-20.82
1.18
23.40
45.96
68.72
91.08
112.02
130.22
144.46
153.77
157.48
155.30
147.30
134.08
116.65
96.24
74.08
51.27
28.70
7.08
-13.07
-31.46
-48.06
-63.09
-76.92
-89.79
-101.67
-112.27
-121.34
-128.81
-134.91
-139.91
-143.75
-145.83
-145.05
-140.23
-130.56
-115.72
-95.96
-71.97
-44.82
-16.02
12.46
38.40
59.72
74.90
83.36
85.61
82.86
76.75
68.85
60.27
51.63
43.12
34.53
25.63
16.45
7.27
-1.34
-8.91
-15.27
-20.45
-24.39
-26.89
-27.57
-25.96
-22.00
-16.10
-9.40
-3.23
1.50
4.80
7.24
9.51
12.12
14.85
17.11
17.80
15.93
11.33
5.01
-1.56
-7.13
-10.56
-11.82
-11.37
-10.57
-10.67
-11.90
-12.89
-11.91
-8.05
-0.76
8.34
16.59
19.89
14.19
-3.01
-31.19
-67.98
-109.94
-151.54
-188.51
-211.08
-210.96
-186.31
-143.79
-93.01
-41.41
5.99
54.21
106.60
163.53
222.20
279.42
328.36
365.63
389.72
390.20
363.34
312.20
246.43
176.50
109.78
50.14
0.44
-38.80
-68.92
-89.08
-99.97
-103.96
-105.30
-108.72
-118.14
-131.95
-148.90
-167.27
-184.28
-198.35
-209.40
-218.61
-227.48
-236.55
-244.38
-249.17
-248.35
-238.95
-218.82
-187.81
-147.60
-101.43
-52.91
-5.22
37.94
73.58
99.48
115.48
122.45
122.15
116.50
107.94
99.50
93.57
92.97
99.83
116.86
145.12
183.07
226.36
270.01
310.32
344.68
372.94
383.26
367.15
323.75
260.97
189.49
118.29
56.04
0.93
-48.46
-93.09
-132.15
-165.59
-191.11
-209.11
-221.19
-229.01
-234.16
-236.37
-234.92
-227.77
-213.28
-191.20
-163.56
-133.33
-103.35
-76.27
-53.36
-35.55
-22.69
-14.31
-9.86
-9.29
-12.41
-18.71
-27.82
-38.89
-51.15
-63.28
-73.64
-80.43
-82.16
-77.56
-65.69
-46.27
-19.51
13.44
50.61
89.23
125.89
156.95
179.31
190.96
191.28
181.06
162.08
136.62
107.12
75.94
45.17
16.59
-8.33
-28.53
-43.46
-53.12
-57.95
-58.68
-56.22
-51.46
-45.29
-38.50
-31.73
-25.48
-20.17
-15.99
-12.98
-10.96
-9.58
-8.34
-6.77
-4.54
-1.58
1.89
5.47
8.68
11.06
12.28
12.20
10.84
8.39
5.14
1.47
-2.23
-5.58
-8.33
-10.29
-11.39
-11.65
-11.17
-10.15
-8.83
-7.47
-6.26
-5.33
-4.64
-4.10
-3.61
-3.05
-2.35
-1.45
-0.27
1.17
2.79
4.39
5.77
6.74
7.24
7.36
7.25
7.06
6.91
6.73
6.44
5.91
5.05
3.83
2.33
0.65
-1.00
-2.43
-3.48
-4.02
-3.97
-3.37
-2.31
-0.99
0.39
1.60
2.50
3.04
3.35
3.62
4.05
4.82
6.08
7.85
10.05
12.42
14.60
16.17
16.78
16.18
14.37
11.59
8.21
4.64
1.14
-2.23
-5.53
-8.88
-12.31
-15.60
-18.31
-19.96
-20.22
-19.16
-17.24
-15.15
-13.48
-12.82
-13.33
-14.74
-16.30
-17.06
-16.19
-13.12
-7.66
0.01
8.81
17.34
24.59
30.23
34.77
38.99
43.65
49.14
55.38
60.97
64.20
63.93
60.09
53.52
45.19
35.73
25.25
13.47
-1.09
-20.02
-43.97
-72.35
-103.45
-135.43
-166.61
-195.66
-214.51
-215.90
-197.51
-164.13
-124.21
-84.40
-47.86
-15.13
14.16
40.41
62.68
79.75
92.33
101.19
107.53
112.15
115.50
117.30
117.09
113.79
106.76
96.39
84.08
72.00
60.11
49.21
39.68
31.60
24.41
17.50
10.57
3.69
-2.77
-8.55
-13.41
-17.34
-20.39
-22.75
-24.58
-25.87
-26.57
-26.43
-25.32
-22.99
-19.37
-14.60
-9.08
-3.40
1.76
5.75
8.20
9.07
8.70
7.59
6.24
5.02
4.11
3.52
3.21
3.16
3.44
4.18
5.41
6.98
8.54
9.75
10.31
10.15
9.41
8.32
7.14
6.01
4.92
3.81
2.61
1.27
-0.20
-1.84
-3.73
-5.98
-8.75
-12.18
-16.35
-21.20
-26.54
-32.02
-37.18
-41.60
-44.93
-46.96
-47.59
-46.73
-44.14
-39.59
-32.85
-23.85
-12.83
-0.25
13.27
27.05
40.37
52.52
62.79
70.48
75.12
76.46
74.57
69.82
62.67
53.53
42.69
30.31
16.56
1.75
-13.72
-29.40
-44.89
-59.89
-74.13
-87.30
-98.91
-108.22
-114.20
-115.83
-112.23
-103.00
-88.33
-69.02
-46.38
-22.07
2.15
24.65
43.96
59.07
69.48
75.28
77.18
76.26
73.62
70.15
66.30
62.19
57.72
52.85
47.69
42.57
38.01
34.47
32.37
