1638527269.00
64.000000
-0.00
-0.00
-0.00
-0.00
-0.00
-0.00
-0.00
-0.00
-0.00
-0.00
0.00
0.01
0.01
-0.00
-0.03
-0.05
-0.05
0.00
0.13
0.36
0.66
1.01
1.37
1.72
2.06
2.40
2.79
3.24
3.80
4.42
5.06
5.66
6.20
6.68
7.15
7.68
8.31
9.14
10.09
11.04
11.88
12.56
13.14
13.76
14.65
15.96
17.91
20.32
22.90
25.38
27.58
29.57
31.68
34.32
37.81
42.54
48.15
54.10
59.83
64.97
69.58
74.14
79.34
85.71
93.76
103.00
112.62
121.73
129.77
136.75
143.30
150.75
157.77
166.64
177.95
191.79
206.97
220.57
228.25
225.36
208.53
176.87
132.76
80.05
23.07
-34.94
-92.44
-149.16
-205.23
-260.37
-313.74
-363.87
-409.83
-450.91
-486.50
-515.74
-537.23
-549.22
-549.96
-538.37
-514.21
-478.67
-433.88
-382.45
-327.02
-269.84
-212.63
-156.66
-102.95
-52.37
-5.90
35.58
71.43
101.35
125.50
144.38
158.69
169.15
176.37
180.75
182.57
182.07
179.51
175.23
169.65
163.18
156.15
148.81
141.30
133.69
126.02
118.33
110.68
103.15
95.82
88.71
81.87
75.28
68.94
62.86
57.05
51.54
46.38
41.59
37.15
33.05
29.24
25.68
22.37
19.29
16.47
13.94
11.72
9.80
8.14
6.67
5.31
4.04
2.86
1.82
0.99
0.42
0.08
-0.13
-0.39
-0.82
-1.49
-2.33
-3.16
-3.76
-4.00
-3.90
-3.65
-3.58
-3.96
-4.92
-6.30
-7.75
-8.84
-9.29
-9.10
-8.60
-8.32
-8.75
-10.09
-12.13
-14.34
-16.12
-17.02
-17.01
-16.43
-15.81
-15.69
-16.54
-18.69
-22.24
-26.77
-31.05
-33.04
-30.49
-21.98
-7.82
9.70
26.96
40.48
48.16
49.90
47.15
41.99
36.17
30.80
26.47
23.58
22.36
22.77
24.34
26.20
27.54
27.85
27.06
25.31
22.87
19.98
16.95
14.29
12.47
11.70
11.67
11.72
11.14
9.73
7.94
6.65
6.63
7.97
10.00
11.50
11.46
9.54
6.15
2.23
-1.49
-4.76
-7.87
-11.42
-15.74
-20.53
-24.87
-27.69
-28.38
-27.28
-25.46
-24.27
-24.46
-25.74
-26.92
-26.56
-23.64
-18.13
-10.88
-3.18
3.61
8.40
10.47
9.53
5.89
0.45
-5.44
-10.39
-13.46
-14.50
-14.08
-13.06
-12.13
-11.37
-10.39
-8.60
-5.60
-1.38
3.73
9.16
14.27
18.45
21.12
21.81
20.25
16.51
11.13
5.00
-0.82
-5.52
-8.84
-11.14
-13.21
-15.78
-19.17
-23.12
-26.98
-30.09
-32.10
-33.09
-33.47
-33.62
-33.56
-32.86
-31.00
-27.42
-21.90
-14.58
-6.01
3.03
11.75
19.56
26.15
31.50
35.82
39.36
42.32
44.86
47.07
49.19
51.59
54.63
58.51
63.08
67.90
72.40
76.28
79.59
82.75
86.11
89.65
92.86
94.94
95.15
93.14
89.02
83.22
76.26
68.60
60.70
53.06
46.26
40.62
35.83
30.73
23.63
13.00
-1.51
-18.53
-35.22
-48.21
-54.87
-54.26
-47.32
-36.35
-24.08
-12.87
-4.32
0.87
2.73
2.01
-0.04
-1.92
-2.44
-1.06
1.90
5.59
9.14
12.18
14.94
17.94
21.49
25.35
28.68
30.45
29.86
26.78
21.83
16.12
10.87
7.00
4.96
4.65
5.56
7.00
8.37
9.41
10.35
11.83
14.42
18.03
21.47
22.57
18.76
8.16
-9.80
-34.15
-62.96
-93.95
-124.87
-153.40
-176.91
-192.59
-198.37
-194.10
-182.18
-167.14
-153.82
-145.40
-142.22
-142.11
-142.06
-139.96
-135.50
-129.76
-124.16
-119.74
-117.20
-117.30
-121.03
-128.89
-139.82
-150.59
-156.35
-152.62
-137.33
-111.92
-80.47
-47.67
-16.56
12.32
40.15
68.08
95.87
121.69
143.11
158.43
167.44
171.31
171.71
170.00
166.80
162.22
156.51
150.33
144.66
140.27
137.38
135.40
133.02
128.59
120.56
107.87
90.21
68.10
42.61
14.96
-13.87
-43.23
-72.51
-100.58
-125.43
-144.24
-153.97
-152.33
-138.44
-113.25
-79.41
-40.97
-3.00
29.17
50.95
59.85
56.44
44.37
29.25
16.65
10.31
11.14
17.57
26.73
35.79
42.84
47.08
48.68
48.41
47.48
47.38
49.57
55.07
64.01
75.45
87.45
97.56
103.47
103.67
97.78
86.52
71.43
54.26
36.59
19.44
3.37
-11.49
-25.18
-37.77
-49.27
-59.50
-68.02
-74.15
-77.26
-77.14
-74.32
-70.02
-65.83
-63.15
-62.72
-64.32
-67.04
-69.73
-71.54
-72.26
-72.17
-71.49
-69.88
-66.38
-59.73
-49.15
-34.84
-18.05
-0.56
16.03
30.75
43.17
52.98
59.46
61.50
58.15
49.37
36.51
22.03
8.75
-1.17
-6.83
-8.63
-7.87
-5.97
-3.95
-2.28
-1.09
-0.49
-0.89
-2.97
-7.43
-14.68
-24.65
-36.85
-50.50
-64.82
-78.84
-91.19
-99.95
-102.81
-97.93
-84.90
-65.56
-43.67
-23.89
-10.09
-3.93
-4.39
-8.57
-13.16
-15.96
-16.56
-15.96
-15.66
-16.72
-19.38
-23.34
-28.18
-33.41
-38.31
-41.73
-42.08
-38.10
-29.76
-19.00
-9.33
-4.30
-5.71
-12.53
-21.25
-27.50
-28.02
-21.93
-10.63
3.20
17.15
30.03
41.92
53.57
65.47
77.35
88.06
96.03
99.91
99.06
93.74
84.90
73.59
60.27
44.46
25.28
2.53
-22.37
-46.14
-64.56
-74.04
-73.21
-63.51
-48.54
-32.59
-19.09
-9.94
-5.58
-5.75
-10.05
-18.09
-29.25
-42.30
-55.31
-65.90
-71.74
-71.22
-63.92
-50.82
-34.09
-16.50
-0.64
11.76
20.20
25.29
28.20
30.05
31.46
32.51
32.99
32.75
31.86
30.62
29.28
27.70
25.21
20.84
13.81
4.10
-7.33
-18.70
-27.98
-33.51
-34.50
-30.94
-23.19
-11.67
3.31
21.15
40.59
59.54
75.54
86.57
91.70
91.35
86.97
80.31
72.88
65.81
59.82
55.31
52.13
49.06
43.76
33.41
16.31
-6.81
-32.58
-56.17
-73.68
-83.70
-87.51
-87.54
-85.49
-81.54
-75.55
-69.11
-66.25
-72.15
-89.59
-116.27
-144.75
-165.32
-170.38
-157.61
-130.33
-94.97
-57.89
-23.28
6.81
31.35
49.61
61.42
68.52
75.10
86.74
107.95
139.55
177.35
213.56
239.90
250.77
245.43
227.62
203.55
179.12
158.16
142.27
132.05
128.18
131.20
140.72
153.99
165.59
168.54
156.68
127.01
81.40
26.47
-28.23
-72.98
-101.23
-111.54
-107.71
-96.95
-86.78
-82.18
-84.35
-91.23
-99.52
-106.86
-112.73
-117.79
-122.47
-126.04
-126.75
-123.22
-115.56
-105.69
-96.49
-90.17
-87.06
-85.48
-82.67
-76.32
-65.74
-52.07
-37.37
-23.50
-11.24
-0.28
10.06
20.09
29.21
36.33
40.55
41.89
41.43
40.82
41.39
43.45
46.16
47.97
47.57
44.55
39.79
35.00
31.91
31.37
32.81
34.60
34.92
32.84
28.99
25.44
24.77
28.81
37.64
49.45
61.41
70.93
76.69
78.89
78.69
77.30
75.24
72.28
67.90
61.82
54.29
45.89
37.18
28.49
20.05
12.39
6.51
3.70
4.95
10.45
19.32
29.97
40.70
50.26
58.04
63.87
67.76
69.68
69.56
67.59
64.33
60.75
57.93
56.52
56.25
55.56
52.02
43.17
27.71
6.31
-18.26
-41.99
-61.03
-72.97
-77.44
-75.86
-70.57
-63.78
-56.96
-50.66
-44.86
-39.38
-34.29
-29.96
-26.95
-25.65
-25.86
-26.74
-27.03
-25.72
-22.68
-18.76
-15.48
-14.15
-15.09
-17.34
-19.20
-19.05
-16.18
-11.09
-5.28
-0.53
1.79
1.06
-2.45
-7.93
-14.44
-21.28
-28.02
-34.32
-39.55
-42.70
-42.57
-38.42
-30.64
-20.98
-12.20
-7.04
-7.35
-13.54
-24.74
-39.32
-55.55
-71.73
-86.30
-97.73
-104.71
-106.32
-102.39
-93.55
-81.21
-67.41
-54.50
-44.77
-39.77
-39.80
-43.70
-49.17
-53.83
-56.00
-55.13
-51.32
-44.53
-34.11
-19.14
0.63
23.75
46.92
65.78
76.51
77.27
68.77
53.69
35.45
16.88
-0.35
-15.65
-28.90
-39.92
-48.25
-53.32
-54.69
-52.29
-46.33
-37.06
-24.53
-8.47
11.40
34.87
60.98
87.91
113.30
134.84
150.70
159.75
161.49
155.87
143.51
126.00
106.22
88.22
76.13
72.81
78.53
90.72
104.86
116.23
121.58
120.05
113.04
103.19
93.15
84.61
77.95
72.48
66.95
60.18
51.49
40.94
29.21
17.20
5.65
-5.06
-14.78
-23.48
-31.14
-37.78
-43.59
-48.89
-54.07
-59.39
-64.98
-70.94
-77.43
-84.72
-92.94
-101.69
-109.77
-115.26
-116.07
-110.70
-98.88
-81.76
-61.51
-40.78
-21.96
-6.70
4.28
11.09
14.41
15.14
14.30
12.91
11.77
11.29
11.28
10.92
9.15
5.08
-1.45
-9.63
-17.93
-24.60
-28.38
-28.88
-26.60
-22.50
-17.57
-12.46
-7.53
-3.08
0.34
1.91
0.74
-3.77
-11.57
-21.90
-33.39
-44.45
-53.62
-59.84
-62.64
-62.08
-58.81
-53.98
-49.07
-45.57
-44.50
-45.97
-49.15
-52.53
-54.60
-54.42
-51.89
-47.59
-42.31
-36.55
-30.40
-23.81
-17.09
-11.13
-7.21
-6.26
-8.12
-11.27
-13.19
-11.61
-5.70
3.21
12.00
17.04
15.87
8.26
-3.79
-17.07
-28.64
-36.94
-41.92
-44.54
-45.93
-46.80
-47.31
-47.26
-46.33
-44.18
-40.53
-35.22
-28.37
-20.51
-12.55
-5.38
0.50
5.51
10.90
18.16
28.17
40.38
52.71
62.11
65.68
61.85
51.25
36.61
21.80
10.46
4.68
4.48
7.94
11.96
13.24
9.29
-0.84
-16.15
-33.87
-50.27
-61.80
-66.25
-63.31
-54.40
-41.67
-26.80
-10.24
8.60
30.13
53.40
75.69
93.14
102.46
102.53
95.16
84.53
75.35
70.89
71.64
75.50
79.28
80.68
79.42
77.17
76.33
78.41
83.18
88.89
93.57
96.25
97.41
98.42
100.29
102.86
104.80
104.66
101.81
96.82
90.73
83.90
75.33
62.84
44.30
18.95
-11.97
-45.52
-78.22
-107.32
-131.48
-150.81
-166.26
-178.90
-189.36
-197.43
-202.23
-202.51
-197.33
-186.57
-171.29
-153.47
-135.28
-118.29
-102.85
-88.21
-73.27
-57.40
-40.99
-25.32
-11.99
-2.16
3.85
6.41
6.22
3.84
-0.43
-6.34
-13.28
-20.06
-24.83
-25.62
-20.95
-10.42
4.94
23.00
41.15
57.19
69.94
79.45
86.88
93.82
101.71
111.23
122.10
133.13
142.45
148.09
148.53
143.24
132.84
118.86
103.19
87.41
72.59
59.44
48.73
41.42
38.23
38.81
41.04
41.20
35.12
19.85
-4.78
-35.89
-68.57
-97.77
-120.11
-134.83
-143.36
-148.32
-152.39
-157.55
-164.81
-174.06
-183.68
-190.22
-188.83
-174.82
-146.08
-105.08
-59.22
-18.75
6.87
12.52
-0.86
-27.16
-57.71
-84.35
-101.37
-105.99
-97.96
-79.05
-52.82
-24.52
-0.25
14.55
16.87
7.48
-9.25
-26.85
-38.98
-41.40
-33.10
-16.15
5.43
27.08
45.05
57.13
62.79
62.89
59.10
53.40
47.54
42.86
40.08
39.38
40.47
42.77
45.61
48.27
50.21
51.02
50.56
48.93
46.42
43.40
40.18
36.97
33.77
30.53
27.24
24.07
21.31
19.29
18.13
17.63
17.23
16.22
14.01
10.33
5.43
-0.05
-5.29
-9.63
-12.86
-15.29
-17.71
-21.02
-25.85
-32.26
-39.67
-47.06
-53.41
-58.14
-61.50
-64.49
-68.54
-74.89
-83.97
-95.04
-106.27
-115.28
-120.02
-119.56
-114.52
-106.82
-98.79
-92.17
-87.44
-83.76
-79.54
-73.28
-64.28
-52.84
-40.33
-29.03
-22.04
-22.74
-33.54
-54.10
-79.93
-102.81
-113.22
-104.22
-74.65
-29.95
20.19
65.97
101.22
124.84
139.37
148.30
153.73
155.87
154.16
148.88
141.77
135.36
131.58
130.65
131.15
130.87
128.26
123.27
117.35
112.66
110.87
112.33
115.80
119.11
120.20
118.21
114.04
109.90
108.33
110.91
117.43
125.90
133.44
137.53
137.03
132.58
126.12
119.97
115.83
114.23
114.52
115.32
115.18
113.07
108.66
102.18
94.21
85.30
75.71
65.34
53.79
40.66
25.87
10.00
-5.70
-19.47
-29.53
-34.70
-34.97
-31.80
-27.92
-26.71
-31.18
-42.85
-60.92
-82.12
-101.63
-114.67
-118.14
-111.51
-96.67
-76.74
-54.72
-32.71
-11.96
6.53
21.55
31.61
35.58
33.32
25.94
15.52
4.38
-5.62
-13.50
-19.17
-23.16
-26.23
-28.72
-30.20
-29.38
-24.67
-14.97
-0.48
17.11
35.09
50.70
62.05
68.47
70.37
68.78
65.06
60.72
57.31
55.87
56.15
56.32
53.14
43.14
23.98
-4.22
-38.72
-75.16
-109.15
-137.80
-160.41
-178.08
-192.37
-203.88
-211.75
-214.10
-209.32
-197.40
-180.50
-162.11
-145.52
-132.27
-121.56
-111.01
-98.02
-81.10
-60.16
-36.20
-10.53
15.56
40.91
64.11
83.38
96.96
103.72
103.69
98.10
89.14
79.38
71.20
66.29
65.36
68.03
72.81
77.67
80.67
80.65
77.54
72.19
65.88
59.56
53.61
47.84
41.96
35.94
30.27
25.66
22.55
20.85
19.80
18.47
16.34
13.70
11.51
10.87
12.34
15.59
19.54
22.91
24.86
25.28
24.55
23.11
20.98
17.73
12.79
5.85
-2.89
-12.95
-23.92
-35.83
-49.08
-64.15
-81.13
-99.56
-118.65
-137.85
-157.05
-176.39
-195.50
-212.95
-226.30
-232.77
-230.24
-218.01
-196.80
-168.14
-133.61
-94.43
-51.73
-7.16
36.72
76.68
109.77
134.37
150.77
160.97
167.70
173.21
178.42
182.69
184.37
181.71
173.76
160.70
143.66
124.06
103.29
82.65
63.72
48.57
39.42
37.75
43.24
53.32
63.76
70.10
69.27
60.56
45.52
26.88
7.40
-10.98
-27.20
-40.78
-51.38
-58.71
-62.66
-63.46
-61.62
-57.65
-51.79
-44.07
-34.49
-23.30
-11.10
1.32
13.26
24.26
34.03
42.33
48.92
53.80
57.34
60.36
63.79
68.19
73.27
77.92
80.53
79.78
75.24
67.50
57.87
47.66
37.35
26.11
11.82
-7.99
-34.92
-68.72
-107.05
-146.15
-181.89
-210.85
-230.79
-240.67
-240.43
-231.02
-214.59
-194.48
-174.61
-158.32
-147.00
-139.47
-132.45
-122.12
-105.91
-83.83
-58.42
-33.61
-13.18
0.86
8.81
12.94
16.27
21.30
29.08
39.29
50.93
63.40
76.87
91.81
107.93
123.29
134.54
138.20
132.34
117.77
97.88
77.00
58.46
43.16
29.74
15.74
-0.57
-19.24
-38.81
-57.20
-72.92
-85.36
-94.48
-99.95
-100.90
-95.96
-84.15
-65.82
-43.21
-20.11
-0.79
11.31
14.70
10.28
0.89
-9.61
-17.56
-20.46
-17.41
-8.98
3.17
16.83
29.74
40.08
46.87
50.30
51.68
53.04
56.16
61.78
69.18
76.61
82.05
84.18
82.56
77.20
67.74
53.06
31.81
3.61
-29.95
-65.05
-96.65
-120.31
-133.64
-136.94
-132.65
-124.06
-114.03
-104.31
-95.53
-87.69
-80.66
-74.55
-69.56
-65.88
-63.56
-62.64
-63.39
-66.20
-71.45
-79.13
-88.56
-98.31
-106.55
-111.43
-111.67
-106.93
-97.88
-85.94
-72.77
-59.78
-47.78
-36.87
-26.65
-16.56
-6.31
4.02
13.93
22.91
30.69
37.39
43.43
49.21
55.09
61.27
67.98
75.34
83.27
91.23
98.27
103.36
105.88
106.10
105.09
104.26
104.62
106.44
109.24
112.19
114.62
116.17
116.80
116.60
115.75
114.56
113.58
113.43
114.54
116.91
119.93
122.61
123.96
123.28
120.24
114.72
106.67
96.16
83.60
69.88
56.27
43.89
33.06
23.10
12.44
-0.39
-15.92
-33.31
-50.87
-67.01
-81.07
-93.44
-104.77
-114.87
-122.10
-123.76
-117.37
-102.14
-79.85
-54.40
-30.43
-11.56
0.81
7.54
10.87
13.03
15.10
16.88
17.47
16.27
13.57
10.38
7.67
5.54
2.86
-1.93
-9.78
-19.91
-29.58
-34.81
-31.89
-18.94
3.19
31.11
60.06
85.54
104.50
115.96
120.69
120.46
117.22
112.43
106.83
100.39
92.40
81.85
68.06
51.19
32.57
14.50
-0.48
-10.81
-16.63
-20.15
-25.07
-35.29
-53.70
-80.86
-114.61
-150.35
-182.30
-205.15
-215.75
-213.89
-202.06
-184.31
-164.82
-146.75
-131.97
-121.07
-113.62
-108.37
-103.22
-95.52
-82.68
-63.07
-36.85
-6.29
24.76
51.91
71.52
81.84
83.32
78.27
70.00
61.63
55.33
52.03
51.56
53.15
55.84
58.65
60.68
61.04
59.10
54.62
47.90
39.73
31.10
22.95
15.95
10.43
6.34
3.28
0.51
-2.67
-6.61
-10.80
-13.93
-14.28
-10.46
-2.29
8.82
20.03
27.86
29.29
22.77
8.73
-10.47
-31.29
-50.17
-64.46
-73.00
-76.04
-74.49
-69.33
-61.10
-50.04
-36.63
-22.05
-8.19
2.92
9.82
12.25
11.11
7.96
4.31
1.00
-1.83
-4.52
-7.40
-10.51
-13.38
-15.27
-15.42
-13.26
-8.59
-1.59
7.16
16.70
25.75
32.90
36.95
37.30
34.21
28.79
22.66
17.38
13.99
12.60
12.50
12.37
10.65
6.07
-1.95
-12.85
-24.89
-35.37
-41.41
-40.92
-33.60
-21.14
-6.80
5.77
13.77
15.99
12.83
5.81
-3.33
-13.17
-22.83
-31.71
-39.16
-44.33
-46.33
-44.53
-39.08
-30.96
-21.87
-13.61
-7.28
-2.74
1.50
7.50
16.75
29.11
42.59
54.05
60.64
61.01
55.86
47.48
38.50
30.89
25.30
21.32
18.17
15.34
12.90
11.24
10.64
10.87
11.13
10.35
7.80
3.58
-1.27
-5.02
-6.05
-3.61
1.80
8.58
14.80
18.96
20.59
20.13
18.52
16.55
14.50
12.05
8.61
3.68
-2.79
-10.31
-17.99
-24.71
-29.53
-32.04
-32.54
-32.06
-31.92
-33.26
-36.42
-40.93
-45.71
-49.62
-52.06
-52.98
-52.83
-52.12
-50.97
-49.04
-45.62
-39.87
-31.23
-19.68
-5.86
9.04
23.45
35.76
44.58
49.06
49.19
45.77
40.50
35.52
32.89
33.98
39.03
47.28
57.44
68.31
79.15
89.49
98.64
105.24
107.33
102.96
91.20
72.85
50.49
27.73
8.15
-6.00
-14.49
-19.06
-22.70
-28.26
-37.13
-48.38
-59.09
-65.57
-65.05
-56.95
-42.91
-25.81
-8.27
8.31
23.61
37.58
49.32
56.80
57.55
49.87
33.94
12.08
-11.94
-34.02
-50.94
-61.11
-64.59
-62.73
-57.62
-51.47
-46.30
-43.73
-44.79
-49.61
-57.06
-64.75
-69.48
-68.36
-59.98
-45.15
-26.62
-8.03
7.53
18.46
24.69
26.97
26.06
22.34
16.01
7.53
-2.05
-11.31
-18.90
-24.13
-27.07
-28.49
-29.38
-30.51
-32.17
-34.17
-36.03
-37.37
-38.28
-39.39
-41.72
-46.16
-52.93
-61.22
-69.40
-75.53
-78.16
-76.93
-72.59
-66.67
-60.70
-55.66
-51.57
-47.38
-41.26
-31.03
-14.91
7.71
35.62
65.70
93.41
114.01
124.05
122.58
111.57
95.28
78.80
66.43
60.51
61.09
66.38
73.77
80.81
85.91
88.53
88.99
88.06
86.54
85.05
83.86
83.01
82.36
81.73
80.87
79.47
77.11
73.31
67.82
60.75
52.69
44.55
37.22
31.12
25.98
20.89
14.68
6.42
-4.19
-16.78
-30.56
-44.62
-58.02
-69.92
-79.31
-85.06
-86.08
-81.61
-71.67
-57.37
-40.98
-25.66
-14.68
-10.55
-14.05
-23.68
-35.82
-45.93
-50.29
-47.75
-40.22
-31.83
-26.93
-27.92
-34.22
-42.80
-49.86
-52.64
-50.37
-43.90
-34.46
-22.59
-7.82
10.56
32.40
55.89
77.87
95.02
105.07
107.77
104.51
97.61
89.17
80.32
71.19
61.39
50.43
38.23
25.30
12.74
2.21
-4.50
-6.08
-2.27
5.75
15.77
25.34
32.84
37.86
41.01
43.03
44.12
43.78
41.33
36.65
30.59
24.67
20.25
17.58
15.64
12.70
7.37
-0.60
-10.08
-19.16
-26.08
-29.92
-30.81
-29.64
-27.89
-27.71
-31.93
-43.38
-63.48
-90.51
-119.09
-141.40
-150.07
-141.42
-117.13
-83.59
-48.94
-19.63
1.67
15.90
25.40
31.93
35.67
35.76
31.55
23.42
12.84
1.96
-7.50
-15.28
-22.16
-29.23
-37.04
-45.05
-52.28
-57.44
-59.40
-57.81
-53.83
-49.19
-45.44
-43.28
-42.50
-43.09
-44.95
-47.68
-50.51
-52.97
-54.37
-54.22
-52.76
-50.95
-50.92
-53.92
-59.25
-60.25
-51.83
-33.42
-9.46
12.22
31.15
48.76
66.51
84.73
102.02
115.76
124.31
128.26
130.19
133.18
137.86
142.62
144.51
140.90
130.03
112.14
89.58
66.23
46.45
32.76
25.46
22.61
20.98
16.99
8.79
-2.90
-15.19
-24.55
-29.01
-28.56
-24.55
-18.57
-11.82
-4.66
3.12
11.72
21.10
30.69
39.74
47.38
52.70
54.82
53.06
47.25
37.34
23.16
4.21
-19.98
-49.05
-81.25
-113.38
-141.60
-162.71
-175.23
-179.54
-177.18
-169.84
-158.74
-144.75
-128.79
-112.33
-97.15
-84.61
-74.99
-67.34
-60.04
-51.68
-41.95
-31.69
-22.23
-14.08
-6.12
4.30
20.17
42.91
71.14
100.73
126.44
144.07
152.16
152.19
147.30
140.22
131.61
119.91
102.68
78.77
49.74
20.11
-4.01
-17.29
-17.31
-5.74
11.99
29.06
39.97
42.38
37.32
28.00
17.98
9.82
4.49
1.20
-0.95
-2.08
-1.50
1.44
6.54
12.58
17.89
20.99
19.92
14.08
5.05
-3.98
-9.95
-11.27
-8.18
-2.02
5.55
10.99
11.63
6.40
-4.23
-19.44
-38.44
-60.00
-81.88
-101.51
-120.02
-139.90
-163.46
-191.41
-223.00
-256.14
-287.65
-313.92
-315.03
-279.81
-211.68
-127.41
-45.52
22.15
70.62
99.05
109.31
105.89
92.09
71.64
49.36
30.07
16.35
7.86
2.68
-0.89
-2.08
-2.14
-1.91
-1.36
0.05
2.48
5.45
8.37
11.19
14.35
16.80
17.60
16.70
15.19
14.59
16.07
19.99
25.91
32.68
38.04
40.10
38.13
32.71
25.27
17.43
10.55
5.55
2.75
1.58
1.19
0.84
0.12
-1.19
-3.18
-5.95
-9.54
-13.80
-18.46
-22.93
-26.54
-28.67
-29.11
-28.14
-26.57
-25.52
-26.19
-29.61
-36.42
-46.69
-59.70
-73.65
-85.76
-92.78
-91.97
-82.30
-65.01
-43.38
-21.57
-3.01
10.68
19.88
26.15
31.11
35.53
39.34
42.02
43.25
43.11
42.02
40.35
38.36
36.30
34.60
34.09
35.75
40.33
47.86
57.44
67.39
75.71
80.96
82.93
83.02
83.72
87.61
95.82
107.22
118.38
124.91
123.40
113.11
96.44
78.06
62.83
53.99
52.13
55.50
61.26
66.82
70.67
72.35
72.05
70.18
67.25
64.03
61.65
61.43
64.25
70.02
77.46
84.50
89.02
89.54
85.69
78.06
67.92
56.75
45.82
36.07
28.07
22.00
17.65
14.53
11.94
9.26
6.12
2.53
-1.19
-4.62
-7.51
-9.96
-12.37
-15.31
-19.16
-23.86
-28.89
-33.50
-37.09
-39.45
-40.82
-41.65
-42.37
-43.12
-43.83
-44.26
-44.33
-44.11
-43.81
-43.56
-43.22
-42.35
-40.40
-36.99
-32.08
-26.03
-19.44
-12.66
-5.69
1.90
10.51
20.06
29.77
38.35
44.58
47.93
48.91
48.77
48.99
50.64
54.08
58.96
64.55
69.93
74.13
76.19
75.29
71.04
63.73
54.37
44.28
34.60
25.79
17.56
9.21
0.17
-9.54
-19.31
-28.21
-35.45
-40.69
-44.04
-45.87
-46.56
-46.41
-45.54
-44.00
-41.91
-39.50
-37.07
-35.01
-33.65
-33.17
-33.53
-34.47
-35.60
-36.63
-37.43
-38.12
-38.93
-40.06
-41.60
-43.55
-45.91
-48.71
-51.96
-55.38
-58.41
-60.19
-60.05
-57.85
-54.26
-50.55
-48.07
-47.59
-48.96
-51.24
-53.21
-53.98
-53.25
-51.34
-48.72
-45.78
-42.62
-39.27
-35.91
-33.00
-31.08
-30.56
-31.42
-33.29
-35.68
-38.14
-40.33
-41.82
-41.92
-39.79
-34.71
-26.58
-16.08
-4.49
6.92
17.46
27.19
36.76
46.79
57.55
68.79
79.97
90.44
99.49
106.27
109.72
108.82
103.06
92.81
79.35
64.47
49.76
36.30
24.61
15.04
8.08
4.40
4.34
7.27
11.33
13.79
12.05
4.95
-6.56
-19.70
-31.04
-38.17
-40.65
-40.10
-39.35
-41.19
-47.39
-58.39
-73.50
-91.13
-109.05
-124.52
-134.68
-137.25
-131.38
-118.12
-100.02
-80.10
-60.50
-41.85
-23.37
-3.95
16.76
37.72
56.71
71.12
78.98
79.60
73.75
63.18
50.09
36.43
23.68
12.80
4.39
-1.18
-3.88
-4.07
-2.58
-0.45
1.42
2.76
4.13
6.69
11.55
18.89
27.52
34.95
38.41
36.27
29.22
20.52
14.93
16.81
28.09
47.27
69.86
90.08
103.07
106.40
100.47
87.55
70.57
51.95
33.25
15.43
-0.73
-14.40
-24.88
-31.97
-36.31
-39.23
-42.37
-47.01
-53.72
-62.12
-71.26
-80.05
-87.79
-94.38
-100.16
-105.59
-110.82
-115.47
-118.58
-118.97
-115.70
-108.48
-97.88
-85.14
-71.81
-59.27
-48.42
-39.67
-32.99
-28.18
-24.91
-22.78
-21.39
-20.36
-19.44
-18.48
-17.41
-16.13
-14.46
-12.20
-9.32
-5.98
-2.40
1.33
5.44
10.32
16.33
23.43
31.04
38.25
44.17
48.30
50.57
51.15
50.05
47.05
41.86
34.55
25.82
16.97
9.49
4.39
1.94
1.61
2.51
3.76
4.84
5.49
5.46
4.45
2.15
-1.32
-5.23
-8.31
-9.18
-7.00
-1.77
5.65
13.97
21.88
28.46
33.21
35.92
36.48
34.85
31.23
26.20
20.91
16.86
15.55
17.90
23.85
32.27
41.22
48.64
52.93
53.37
50.02
43.55
34.83
24.82
14.68
5.67
-1.00
-4.58
-5.04
-3.00
0.58
4.81
9.11
13.13
16.54
18.97
20.19
20.44
20.63
22.02
25.69
31.77
39.19
46.14
51.00
53.23
53.62
53.73
54.79
56.95
59.38
61.18
62.35
64.05
67.73
73.71
80.30
84.23
82.28
73.26
58.75
42.53
28.60
19.38
14.93
13.60
13.35
12.84
11.77
10.42
8.92
6.93
3.62
-1.94
-10.36
-21.57
-34.39
-46.63
-55.54
-58.63
-54.55
-43.59
-27.31
-7.33
15.67
42.09
72.21
104.36
133.94
154.06
157.92
141.72
106.54
57.92
3.80
-48.40
-93.87
-130.52
-158.17
-177.53
-189.69
-196.01
-198.35
-199.18
-200.72
-204.32
-208.92
-211.07
-206.34
-191.34
-165.31
-130.58
-92.01
-55.01
-24.46
-2.51
11.26
18.36
19.89
16.11
6.77
-8.14
-27.31
-48.80
-69.06
-83.95
-90.22
-86.52
-73.35
-52.47
-26.45
6.87
44.10
78.74
105.62
123.77
134.98
141.21
144.88
145.44
142.14
134.35
123.42
112.07
102.75
95.32
89.08
82.76
75.26
67.05
59.38
54.48
54.17
58.43
65.13
71.35
74.81
74.79
72.53
69.70
67.74
67.01
66.40
63.85
57.69
47.41
33.90
19.29
5.77
-4.88
-11.68
-14.67
-14.79
-13.54
-12.84
-14.67
-20.63
-31.41
-46.44
-63.82
-80.81
-94.68
-103.40
-106.17
-103.36
-96.10
-85.85
-74.04
-62.02
-50.97
-41.83
-35.08
-30.62
-27.67
-25.20
-22.47
-19.41
-16.81
-15.71
-16.70
-19.48
-22.94
-25.77
-27.21
-27.40
-27.17
-27.32
-28.06
-29.02
-29.58
-29.50
-29.19
-29.47
-31.05
-33.99
-37.66
-41.09
-43.46
-44.39
-43.84
-41.88
-38.38
-33.19
-26.33
-18.26
-9.78
-1.71
5.54
12.08
18.32
24.37
29.73
33.25
33.64
30.28
23.78
15.98
9.22
5.31
4.74
6.50
8.63
9.14
6.89
1.88
-5.03
-12.61
-19.91
-26.49
-32.42
-38.03
-43.53
-48.84
-53.55
-57.22
-59.71
-61.46
-63.48
-66.81
-71.76
-77.19
-80.46
-78.17
-67.59
-48.20
-22.33
5.20
28.70
43.61
48.32
44.66
36.99
30.23
27.57
29.08
31.83
31.57
25.09
12.18
-3.97
-18.13
-25.31
-23.01
-11.90
4.85
23.31
40.31
54.09
64.05
69.93
71.61
69.51
65.02
60.47
58.11
58.53
59.71
57.94
50.11
36.41
21.26
11.81
14.58
31.96
60.75
93.31
120.93
137.25
140.29
132.06
116.78
98.66
80.59
63.97
49.32
37.06
27.80
22.37
21.24
24.27
30.45
38.13
45.71
52.27
57.77
62.88
68.36
74.40
80.37
85.04
86.95
84.96
78.46
67.48
52.53
34.59
14.87
-5.26
-24.61
-42.44
-58.60
-73.44
-87.55
-101.35
-114.94
-128.05
-140.05
-149.88
-156.14
-157.35
-152.46
-141.40
-125.21
-105.74
-85.16
-65.56
-48.86
-36.83
-30.91
-31.71
-38.37
-48.25
-57.44
-62.12
-60.06
-51.61
-39.42
-27.20
-18.04
-13.29
-12.46
-13.87
-15.70
-16.85
-17.36
-18.18
-20.88
-26.97
-37.14
-50.59
-64.63
-74.77
-75.80
-63.45
-36.15
3.64
49.59
93.01
125.43
141.13
138.83
121.68
95.85
68.48
45.51
30.56
24.45
25.76
31.75
39.40
46.46
51.81
55.39
57.70
58.95
58.32
53.96
43.71
26.37
2.91
-23.37
-47.71
-65.69
-74.77
-75.07
-68.78
-58.84
-47.53
-35.84
-23.66
-10.26
4.94
22.04
40.62
59.66
77.59
92.12
100.61
100.94
92.30
75.87
54.59
32.43
13.19
-0.51
-7.86
-9.88
-8.97
-7.98
-9.32
-14.31
-22.99
-34.45
-47.30
-60.16
-71.86
-81.68
-89.44
-95.82
-102.47
-111.79
-126.16
-146.45
-170.90
-194.67
-210.80
-212.55
-195.95
-161.76
-115.51
-65.77
-21.25
12.16
32.87
43.39
48.48
52.94
59.85
70.10
82.86
96.40
108.65
117.32
120.03
114.73
100.86
80.16
56.84
36.31
23.16
19.32
23.37
31.64
40.13
46.39
50.06
52.00
52.90
52.21
48.49
40.50
28.44
14.14
0.20
-11.36
-20.03
-26.64
-32.42
-37.78
-41.98
-43.39
-40.50
-32.77
-20.87
-6.54
8.14
21.25
31.54
38.48
42.21
43.23
42.09
39.06
34.11
27.15
18.33
8.31
-1.92
-11.46
-19.80
-26.78
-32.32
-36.15
-37.93
-37.70
-36.33
-35.50
-37.10
-42.19
-50.17
-58.75
-64.85
-65.79
-60.22
-48.45
-32.34
-14.52
2.46
16.67
27.31
34.48
38.36
39.24
37.01
30.90
19.53
1.62
-23.02
-52.35
-82.00
-106.74
-121.18
-121.71
-107.99
-83.30
-53.40
-24.69
-2.19
11.19
13.77
6.15
-9.59
-30.62
-54.19
-77.75
-99.26
-116.82
-129.41
-137.86
-142.52
-143.62
-141.56
-137.56
-133.61
-132.67
-137.50
-138.76
-129.47
-104.46
-61.73
-2.58
67.54
138.90
198.28
239.66
260.34
260.82
246.42
224.81
203.41
184.68
171.26
164.13
162.97
165.58
167.74
165.53
156.09
138.23
112.50
81.39
48.20
16.78
-9.57
-28.82
-39.57
-41.64
-36.52
-27.44
-18.21
-12.35
-11.60
-15.67
-22.54
-29.21
-33.30
-34.38
-34.00
-34.61
-38.31
-45.55
-54.97
-64.10
-70.20
-70.97
-64.82
-50.75
-28.31
1.86
37.61
75.07
109.27
135.18
149.08
149.40
137.12
115.35
88.37
60.60
35.64
15.70
1.39
-8.01
-14.08
-18.62
-23.04
-28.10
-33.96
-40.33
-46.70
-52.53
-57.34
-60.65
-62.18
-61.91
-60.29
-58.33
-57.44
-58.96
-63.57
-70.83
-79.12
-86.30
-90.54
-91.16
-88.75
-84.74
-80.58
-77.05
-74.06
-70.87
-66.69
-61.17
-54.63
-48.01
-42.39
-38.51
-36.23
-34.44
-31.32
-25.12
-15.00
-1.66
12.64
25.08
33.49
37.47
38.60
39.70
43.63
52.10
65.20
81.40
98.04
111.75
119.24
118.10
107.97
91.05
72.02
56.70
49.75
52.75
63.20
75.50
83.32
82.26
71.68
54.78
37.17
24.39
19.62
22.57
29.85
36.64
38.79
34.29
23.61
8.73
-8.15
-25.51
-42.55
-58.70
-73.11
-84.51
-91.54
-93.28
-89.61
-81.12
-68.73
-53.55
-36.77
-19.65
-3.40
11.08
23.36
33.34
41.06
46.54
49.71
50.62
49.46
46.66
42.65
37.57
31.10
22.83
12.95
2.45
-7.19
-14.61
-19.04
-20.40
-18.95
-15.32
-9.87
-2.61
6.58
17.36
28.54
38.57
46.14
50.66
51.65
49.01
42.94
33.86
21.89
6.69
-12.16
-34.65
-59.94
-86.98
-114.01
-138.56
-156.76
-164.22
-159.61
-146.45
-132.41
-121.63
-116.25
-116.83
-122.70
-131.70
-140.51
-145.27
-142.20
-128.35
-102.56
-66.97
-26.45
12.64
44.36
64.56
71.89
68.18
57.85
46.55
38.74
36.89
41.26
50.26
61.14
70.62
75.90
75.33
68.83
57.46
43.32
29.03
17.03
8.84
4.62
3.36
3.35
2.85
0.43
-4.64
-12.25
-21.66
-31.72
-41.32
-49.52
-55.74
-59.79
-61.94
-62.87
-63.46
-64.57
-66.80
-70.31
-74.76
-79.60
-84.22
-88.20
-91.27
-93.24
-93.84
-92.62
-89.00
-82.38
-72.33
-58.66
-41.41
-20.81
2.78
28.83
56.39
84.04
110.00
132.53
150.54
163.90
173.52
180.84
187.13
192.93
197.95
201.39
202.48
200.95
197.04
191.35
184.48
176.74
168.17
158.47
147.25
134.30
119.81
104.56
89.77
76.71
66.23
58.43
52.64
47.81
42.87
37.09
30.13
22.01
12.93
3.26
-6.54
-16.00
-24.70
-32.28
-38.55
-43.47
-47.21
-50.21
-53.11
-56.49
-60.50
-64.56
-67.47
-67.86
-64.88
-58.68
-50.51
-42.22
-35.48
-31.11
-28.84
-27.51
-25.65
-22.03
-16.15
-8.31
0.57
9.50
17.85
25.62
33.20
40.78
47.90
53.31
55.45
53.30
47.08
38.34
29.36
22.29
18.32
17.44
18.87
21.66
25.20
29.30
34.02
39.36
45.10
50.82
55.90
59.55
60.71
57.98
49.87
35.15
13.48
-13.95
-44.23
-73.14
-96.34
-110.82
-116.10
-114.28
-109.01
-103.77
-100.21
-97.62
-93.40
-84.55
-69.15
-47.23
-20.75
7.24
33.52
55.40
70.94
78.85
78.50
69.99
54.50
34.47
13.26
-5.53
-19.11
-26.28
-27.57
-24.79
-20.21
-15.82
-13.09
-12.91
-15.49
-20.29
-26.10
-31.23
-34.24
-34.66
-33.38
-32.42
-33.99
-39.54
-49.12
-61.71
-75.84
-90.24
-104.09
-116.56
-126.38
-131.68
-130.41
-121.21
-104.10
-80.62
-53.35
-24.94
2.70
28.55
52.02
72.22
87.71
96.98
99.36
95.65
88.24
80.26
74.33
71.65
71.85
73.56
75.36
76.48
76.89
77.04
77.46
78.53
80.63
84.30
90.15
98.67
109.72
122.32
134.67
144.55
149.84
149.07
141.80
128.64
111.06
90.97
70.22
50.19
31.60
14.67
-0.59
-13.95
-24.95
-32.97
-37.67
-39.28
-38.69
-37.12
-35.59
-34.57
-33.90
-33.11
-31.89
-30.42
-29.27
-29.03
-29.92
-31.58
-33.24
-34.09
-33.76
-32.48
-31.05
-30.33
-30.97
-33.21
-37.01
-42.25
-48.90
-56.88
-65.80
-74.75
-82.24
-86.51
-86.05
-80.04
-68.65
-53.03
-35.00
-16.77
-0.57
11.69
18.75
20.32
17.19
10.87
3.18
-4.34
-10.77
-15.89
-19.88
-23.11
-25.98
-28.88
-32.27
-36.56
-41.99
-48.38
-55.15
-61.52
-66.82
-70.67
-72.97
-73.73
-72.85
-70.10
-65.31
-58.65
-50.77
-42.60
-35.09
-28.84
-24.11
-20.84
-18.82
-17.72
-17.11
-16.39
-14.98
-12.57
-9.38
-6.03
-3.24
-1.31
-0.00
1.41
3.70
7.13
11.36
15.47
18.31
18.78
16.06
9.80
0.23
-11.69
-24.29
-35.51
-43.41
-46.73
-45.29
-39.98
-32.44
-24.56
-17.92
-13.49
-11.50
-11.52
-12.73
-14.25
-15.45
-16.17
-16.72
-17.57
-18.97
-20.48
-20.96
-18.98
-13.44
-4.32
7.16
18.87
28.67
35.27
38.79
40.45
41.90
44.32
47.89
51.89
55.10
56.62
56.18
54.34
52.14
50.57
50.18
50.91
52.15
53.11
53.10
51.60
48.26
42.82
35.27
26.24
17.27
10.61
8.43
11.70
19.49
29.17
37.53
42.07
41.96
37.73
30.23
19.56
4.91
-14.57
-38.35
-63.57
-85.56
-99.45
-102.36
-94.71
-80.03
-63.40
-49.29
-39.97
-35.17
-32.95
-31.18
-28.68
-25.52
-22.63
-20.88
-20.44
-20.58
-19.97
-17.26
-11.62
-2.92
8.26
20.86
33.34
43.87
50.32
50.68
43.58
28.92
8.22
-15.54
-38.70
-58.01
-71.53
-79.02
-81.62
-81.09
-79.00
-76.10
-72.10
-65.75
-55.31
-39.14
-16.44
12.01
43.66
74.44
99.91
116.50
122.62
119.02
108.44
94.55
80.84
69.83
62.68
59.26
58.51
58.86
58.65
56.57
51.80
44.16
34.08
22.38
10.13
-1.63
-12.02
-20.48
-26.85
-31.25
-34.02
-35.56
-36.12
-35.73
-34.06
-30.59
-24.79
-16.44
-6.04
5.22
15.63
23.52
28.02
29.41
29.09
28.96
30.49
33.96
38.44
42.20
43.73
42.52
39.22
35.17
31.66
29.19
27.30
25.01
21.50
16.64
11.03
5.56
0.77
-3.40
-7.62
-12.57
-18.47
-24.95
-31.13
-36.14
-39.57
-41.73
-43.58
-46.39
-51.24
-58.36
-66.95
-75.23
-80.99
-82.43
-78.78
-70.64
-59.63
-47.71
-36.32
-26.01
-16.47
-7.05
2.66
12.42
21.30
27.93
31.04
29.92
24.86
17.29
9.55
4.34
3.98
9.56
20.51
34.67
48.94
60.20
66.24
66.29
61.02
52.11
41.63
31.45
22.85
16.35
11.84
8.72
6.23
3.71
0.74
-2.72
-6.46
-10.14
-13.50
-16.53
-19.34
-22.11
-24.89
-27.56
-29.96
-32.01
-33.84
-35.81
-38.35
-41.78
-46.12
-51.16
-56.48
-61.76
-66.90
-72.02
-77.39
-83.10
-88.95
-94.35
-98.46
-100.52
-100.03
-96.95
-91.65
-84.65
-76.50
-67.53
-57.87
-47.53
-36.58
-25.18
-13.60
-2.25
8.40
17.76
25.19
29.94
31.44
29.50
24.58
17.98
11.69
7.95
8.70
14.92
26.33
41.56
58.57
75.38
90.47
102.77
111.38
115.24
113.31
105.06
91.30
74.33
57.44
43.66
34.62
29.80
26.83
22.38
13.56
-1.04
-20.72
-42.77
-63.01
-76.87
-80.75
-73.37
-56.40
-34.12
-12.02
5.05
14.26
15.48
10.70
2.68
-6.34
-15.24
-23.71
-31.40
-37.46
-40.77
-40.20
-35.22
-26.32
-14.97
-2.88
8.84
20.17
31.89
44.33
57.15
69.33
79.38
85.90
87.91
85.11
77.78
66.47
51.25
32.42
11.01
-11.32
-32.38
-49.85
-61.64
-66.35
-60.75
-45.27
-25.30
-8.76
-1.33
-3.69
-12.22
-21.79
-28.11
-28.92
-24.41
-15.83
-4.68
6.74
16.03
20.20
16.74
5.63
-9.46
-22.42
-26.92
-18.42
2.14
28.19
52.26
69.56
78.26
79.03
73.44
63.19
50.06
36.10
22.68
12.58
7.71
8.22
12.50
17.77
21.31
21.33
17.22
9.57
-0.09
-10.30
-20.05
-28.80
-36.57
-43.74
-50.85
-58.42
-66.66
-75.20
-83.64
-91.64
-98.95
-105.41
-110.92
-115.32
-118.45
-120.01
-119.64
-117.32
-113.46
-108.90
-104.62
-101.50
-99.81
-99.05
-97.93
-94.81
-88.46
-78.69
-66.52
-53.79
-42.36
-33.28
-26.32
-20.20
-13.20
-3.98
7.95
22.22
37.95
54.17
70.10
85.13
98.80
110.67
120.29
127.40
132.01
134.47
135.28
134.81
133.19
130.29
125.85
119.72
112.10
103.73
95.65
88.92
84.13
81.33
80.17
80.01
80.06
79.65
78.35
76.02
72.72
68.53
63.59
58.57
53.91
49.54
45.02
39.85
33.79
26.93
19.49
11.87
5.38
0.77
-2.25
-4.68
-7.47
-10.88
-14.46
-17.63
-19.54
-18.01
-11.92
-1.84
10.26
22.23
32.80
41.77
49.44
56.95
67.50
82.99
102.98
125.04
146.43
165.53
182.14
196.40
194.11
167.31
117.52
55.18
-7.79
-63.41
-107.91
-138.22
-158.22
-171.56
-179.51
-183.71
-186.50
-190.40
-196.19
-202.92
-208.60
-211.63
-210.67
-203.78
-190.47
-171.94
-150.55
-128.74
-108.29
-90.23
-75.27
-63.06
-51.84
-40.01
-26.89
-12.96
0.62
12.51
21.66
27.40
30.08
31.17
32.24
34.34
37.69
41.74
45.44
47.49
46.62
42.20
34.58
25.05
15.63
8.67
6.30
9.82
19.33
33.65
50.77
68.32
84.19
96.92
105.80
110.81
112.34
110.96
107.26
101.72
94.72
86.70
78.15
69.67
61.80
54.88
48.84
43.26
37.63
31.67
25.53
19.68
14.56
10.22
6.14
1.42
-4.81
-12.94
-22.67
-33.05
-42.86
-50.96
-56.63
-59.78
-60.81
-60.45
-59.51
-58.60
-58.03
-57.71
-57.37
-56.75
-55.79
-54.72
-53.98
-54.05
-55.23
-57.49
-60.47
-63.62
-66.46
-68.85
-71.05
-73.64
-77.09
-81.41
-85.79
-88.81
-88.85
-84.72
-76.08
-63.61
-48.62
-32.65
-17.00
-2.58
9.96
20.24
28.01
33.36
36.84
39.42
42.24
46.12
51.17
56.73
61.51
64.21
63.97
60.74
55.23
48.65
42.35
37.39
34.46
33.77
35.18
38.33
42.68
47.54
52.04
55.23
56.24
54.54
50.11
43.48
35.57
27.38
19.68
12.82
6.94
2.09
-1.56
-3.79
-4.49
-3.94
-2.87
-2.31
-3.19
-5.99
-10.61
-16.48
-22.93
-29.38
-35.52
-41.22
-46.36
-50.82
-54.58
-57.89
-61.33
-65.68
-71.50
-78.67
-86.18
-92.29
-95.04
-93.05
-86.03
-74.93
-61.56
-47.93
-35.60
-25.29
-16.87
-9.79
-3.34
2.97
9.36
15.85
22.36
28.81
35.20
41.65
48.42
55.79
63.92
72.68
81.50
89.55
95.96
100.23
102.45
103.29
103.66
104.35
105.66
107.33
108.71
109.03
107.64
104.08
98.15
89.82
79.26
66.96
53.72
40.53
28.36
17.76
8.68
0.51
-7.65
-16.53
-26.32
-36.61
-46.57
-55.30
-62.25
-67.36
-70.96
-73.59
-75.72
-77.56
-79.13
-80.35
-81.14
-81.57
-81.78
-81.98
-82.32
-82.91
-83.67
-84.32
-84.35
-82.98
-79.33
-72.67
-62.65
-49.51
-34.15
-17.89
-2.13
12.02
24.01
33.88
42.12
49.36
56.14
62.76
69.30
75.67
81.64
86.85
90.76
92.85
92.87
91.03
88.11
85.32
83.96
85.01
88.77
94.61
101.04
106.12
108.06
105.78
99.27
89.52
78.03
66.24
54.95
44.19
33.46
22.23
10.40
-1.50
-12.42
-21.13
-26.67
-28.65
-27.40
-23.95
-19.65
-15.81
-13.33
-12.62
-13.69
-16.23
-19.63
-22.93
-24.83
-23.97
-19.48
-11.46
-1.13
9.54
18.57
24.72
27.81
28.42
27.31
24.83
20.69
14.43
5.76
-5.03
-17.23
-30.10
-43.12
-56.00
-68.44
-79.85
-89.27
-95.69
-98.46
-97.60
-93.74
-87.88
-80.97
-73.79
-66.98
-61.08
-56.60
-53.78
-52.41
-51.82
-51.03
-49.17
-45.81
-41.16
-35.94
-31.06
-27.24
-24.73
-23.34
-22.55
-21.88
-21.10
-20.31
-19.93
-20.44
-22.23
-25.43
-29.92
-35.34
-41.16
-46.81
-51.79
-55.79
-58.84
-61.36
-64.01
-67.47
-72.03
-77.49
-83.15
-88.14
-91.85
-94.25
-95.86
-97.40
-99.35
-101.49
-102.74
-101.28
-94.95
-81.82
-60.76
-32.12
1.91
37.47
69.98
95.59
112.50
121.58
125.75
128.54
132.56
138.78
146.72
155.44
164.31
173.21
182.04
190.07
195.65
196.70
191.42
179.01
159.91
135.50
107.58
77.98
48.23
19.44
-7.56
-32.09
-53.48
-70.94
-83.63
-90.91
-92.63
-89.28
-81.96
-72.03
-60.77
-49.06
-37.40
-26.06
-15.38
-5.86
1.87
7.38
10.65
12.27
13.21
14.51
16.83
20.20
24.05
27.50
29.75
30.48
29.95
28.89
28.25
28.78
30.64
33.20
35.02
34.26
29.27
19.32
4.94
-12.16
-29.69
-45.48
-57.90
-66.11
-70.02
-70.25
-68.01
-64.88
-62.31
-61.04
-60.80
-60.46
-58.51
-53.79
-45.98
-35.49
-23.19
-9.99
3.27
15.60
25.65
31.84
32.78
27.95
18.11
5.17
-8.41
-20.40
-29.43
-35.34
-39.11
-42.49
-47.38
-55.11
-65.75
-77.86
-88.80
-95.65
-96.45
-91.18
-81.82
-71.58
-63.50
-59.29
-58.87
-60.93
-63.81
-66.33
-67.88
-68.11
-66.48
-62.22
-54.55
-43.18
-28.44
-11.21
7.26
25.39
41.25
52.75
58.21
57.08
50.56
41.41
32.94
27.66
26.47
28.73
33.25
39.26
46.62
55.31
64.68
73.39
80.14
84.62
87.92
91.77
97.28
103.92
109.51
111.32
107.48
98.01
84.71
70.49
58.33
50.61
48.58
51.83
57.92
62.68
61.48
51.11
31.53
6.24
-19.01
-38.70
-49.63
-51.82
-47.78
-40.90
-33.98
-28.69
-25.97
-26.62
-31.53
-41.34
-55.71
-73.02
-90.84
-106.69
-118.99
-127.46
-132.92
-136.42
-138.49
-138.65
-135.56
-127.71
-114.22
-95.44
-72.93
-48.94
-25.57
-4.18
14.78
31.39
45.66
57.22
65.30
69.26
69.06
65.54
60.10
54.27
49.11
45.13
42.50
41.38
42.14
45.14
50.38
57.13
63.98
69.30
71.82
71.13
67.74
62.75
57.33
52.26
47.86
44.04
40.65
37.60
34.89
32.56
30.50
28.43
26.04
23.08
19.65
16.12
13.04
10.92
9.99
10.06
10.64
11.15
11.11
10.29
8.76
6.72
4.37
1.84
-0.89
-3.87
-7.11
-10.54
-14.09
-17.81
-21.86
-26.48
-31.77
-37.53
-43.14
-47.70
-50.28
-50.25
-47.44
-42.24
-35.46
-28.11
-21.18
-15.40
-11.10
-8.22
-6.36
-4.96
-3.50
-1.70
0.39
2.42
3.96
4.69
4.68
4.45
4.77
6.27
8.98
12.15
14.36
14.10
10.46
3.56
-5.48
-15.01
-23.56
-30.38
-35.61
-40.04
-44.71
-50.30
-56.84
-63.52
-68.92
-71.45
-70.00
-64.38
-55.42
-44.47
-32.61
-20.16
-6.79
7.74
22.72
36.09
44.99
46.85
40.41
26.17
6.07
-16.95
-39.18
-56.04
-62.38
-53.75
-28.73
9.07
50.92
85.60
103.84
102.15
84.08
58.11
33.47
16.48
9.05
9.90
16.80
28.49
44.89
66.07
91.02
117.14
140.95
159.12
169.65
172.09
167.48
157.80
145.21
131.31
116.64
100.63
81.97
59.30
31.86
0.23
-33.36
-64.94
-89.13
-100.06
-93.00
-66.23
-22.57
30.44
82.01
120.79
137.99
129.83
98.37
50.74
-3.00
-52.66
-90.37
-112.12
-117.95
-111.01
-95.90
-77.17
-58.36
-41.93
-29.46
-21.89
-19.53
-21.83
-27.32
-33.91
-39.73
-43.84
-46.43
-48.60
-51.51
-55.74
-60.87
-65.58
-68.18
-67.08
-61.33
-50.91
-36.98
-21.62
-7.47
3.07
8.45
8.47
4.29
-1.89
-7.40
-9.66
-6.75
2.15
16.49
34.35
52.76
68.44
78.77
82.52
80.14
73.41
64.57
55.49
47.16
39.69
32.75
25.97
19.25
12.72
6.58
0.99
-3.97
-8.22
-11.62
-13.94
-15.02
-14.87
-13.81
-12.40
-11.29
-11.01
-11.78
-13.44
-15.54
-17.50
-18.90
-19.62
-19.87
-20.04
-20.44
-21.08
-21.66
-21.72
-20.88
-19.06
-16.58
-13.99
-11.88
-10.68
-10.60
-11.65
-13.66
-16.38
-19.51
-22.68
-25.53
-27.76
-29.26
-30.16
-30.78
-31.56
-32.94
-35.28
-38.68
-42.98
-47.63
-51.81
-54.48
-54.63
-51.54
-44.97
-35.37
-23.74
-11.48
-0.04
9.43
16.28
20.42
22.14
21.98
20.48
18.19
15.55
13.04
11.08
9.98
9.87
10.63
11.92
13.34
14.58
15.48
16.03
16.33
16.43
16.32
15.87
14.89
13.25
10.89
7.93
4.60
1.17
-2.06
-4.91
-7.32
-9.39
-11.30
-13.25
-15.39
-17.80
-20.46
-23.28
-26.11
-28.80
-31.20
-33.24
-34.98
-36.68
-38.75
-41.64
-45.63
-50.58
-55.79
-60.01
-61.77
-59.89
-53.85
-44.06
-31.82
-18.83
-6.77
3.22
10.69
15.80
19.06
21.02
22.07
22.47
22.40
22.08
21.83
21.95
22.61
23.80
25.35
27.02
28.60
30.01
31.24
32.26
33.01
33.36
33.16
32.28
30.68
28.36
25.35
21.75
17.75
13.64
9.73
6.27
3.33
0.76
-1.77
-4.65
-8.14
-12.28
-16.82
-21.39
-25.59
-29.19
-32.21
-34.96
-37.94
-41.71
-46.72
-53.16
-60.83
-69.01
-76.43
-81.47
-82.53
-78.47
-69.03
-55.07
-38.32
-20.98
-5.08
7.99
17.74
24.43
28.84
31.75
33.78
35.19
36.05
36.32
36.05
35.39
34.57
33.83
33.32
33.08
33.13
33.42
33.95
34.68
35.56
36.49
37.29
37.72
37.54
36.59
34.86
32.51
29.80
27.09
24.66
22.70
21.27
20.30
19.66
19.16
18.64
17.93
16.91
15.52
13.70
11.43
8.65
5.28
1.21
-3.58
-9.00
-14.83
-20.72
-26.31
-31.28
-35.47
-38.92
-41.85
-44.67
-47.92
-52.19
-57.87
-64.91
-72.52
-79.17
-82.91
-81.91
-75.19
-63.00
-46.90
-29.16
-12.12
2.54
14.12
22.78
29.16
33.93
37.48
39.89
41.10
41.12
40.25
38.99
38.01
37.82
38.67
40.41
42.56
44.55
45.86
46.23
45.68
44.41
42.71
40.71
38.44
35.79
32.66
28.95
24.57
19.38
13.29
6.56
0.18
-4.14
-4.64
-0.40
7.77
17.38
25.17
28.64
27.10
21.85
15.25
9.39
5.19
2.40
0.29
-1.52
-2.85
-3.29
-2.84
-2.15
-2.17
-3.59
-6.32
-9.64
-12.63
-14.72
-16.14
-17.70
-20.42
-24.90
-30.94
-37.49
-42.97
-45.80
-44.90
-39.99
-31.57
-20.75
-8.89
2.73
13.08
21.53
27.79
31.89
34.08
34.77
34.52
34.04
34.05
35.17
37.67
41.26
45.17
48.33
49.88
49.54
47.80
45.69
44.24
44.02
44.82
45.84
46.04
44.70
41.71
37.60
33.34
30.03
28.59
29.41
32.49
37.20
42.76
48.46
53.84
58.73
63.17
67.41
71.84
76.89
82.39
86.90
87.37
79.83
61.30
31.74
-4.84
-41.30
-69.98
-85.88
-88.35
-80.58
-67.22
-51.78
-35.66
-19.04
-2.89
9.70
14.18
6.64
-13.77
-43.88
-77.19
-106.61
-126.91
-136.34
-136.45
-130.63
-122.04
-112.33
-101.40
-88.21
-72.09
-53.63
-34.74
-17.94
-5.21
2.86
7.25
9.92
12.84
17.16
22.87
28.98
34.18
37.46
38.56
37.96
36.62
35.51
35.16
35.49
36.01
36.09
35.40
34.04
32.45
31.09
30.16
29.48
28.61
27.15
25.02
22.50
20.11
18.34
17.38
17.01
16.73
15.91
14.17
11.45
8.05
4.49
1.25
-1.39
-3.38
-4.90
-6.16
-7.38
-8.63
-9.91
-11.16
-12.34
-13.45
-14.55
-15.75
-17.15
-18.84
-20.90
-23.38
-26.32
-29.65
-33.22
-36.76
-39.93
-42.51
-44.48
-46.11
-47.93
-50.50
-54.11
-58.54
-62.93
-65.97
-66.26
-62.79
-55.35
-44.61
-31.98
-19.16
-7.64
1.64
8.37
12.81
15.47
16.93
17.70
18.17
18.64
19.24
20.02
20.90
21.72
22.28
22.42
22.01
21.05
19.73
18.30
17.15
16.56
16.66
17.25
17.93
18.16
17.46
15.63
12.75
9.18
5.45
2.02
-0.79
-2.96
-4.79
-6.80
-9.50
-13.20
-17.76
-22.66
-27.15
-30.66
-33.10
-34.97
-37.18
-40.59
-45.59
-51.94
-58.84
-65.39
-71.01
-75.68
-79.90
-84.51
-90.39
-98.38
-109.16
-123.13
-139.89
-157.73
-173.46
-183.06
-183.16
-172.47
-152.42
-126.54
-98.76
-71.69
-45.75
-19.63
8.30
38.62
70.50
102.19
132.14
159.64
184.82
207.96
228.76
246.19
258.98
266.26
268.01
265.37
260.25
254.66
249.84
245.82
241.59
235.70
227.03
215.17
200.79
185.36
170.44
157.00
145.07
133.87
122.29
109.44
94.73
78.40
61.52
45.43
31.18
19.15
9.14
0.40
-7.99
-17.82
-30.21
-45.21
-61.93
-79.22
-96.05
-111.44
-124.91
-136.37
-148.17
-162.17
-178.60
-196.14
-212.87
-227.04
-236.84
-241.27
-239.87
-236.17
-233.28
-232.52
-233.93
-237.68
-244.67
-255.36
-269.98
-287.43
-309.70
-336.41
-363.91
-386.41
-398.76
-398.13
-383.51
-356.92
-296.84
-200.50
-85.62
19.57
95.14
137.69
151.52
150.69
144.92
139.84
133.98
125.93
119.18
117.82
124.61
139.56
161.00
185.34
209.42
227.76
237.30
238.32
232.96
223.21
209.63
192.38
171.07
146.78
119.94
92.72
68.91
52.09
44.12
44.20
49.85
57.49
64.24
67.44
66.13
61.04
53.72
45.79
38.28
31.85
26.67
22.89
20.23
18.40
17.12
16.01
14.59
12.44
9.35
5.36
0.75
-4.15
-9.16
-14.27
-19.61
-25.21
-30.89
-36.28
-40.90
-44.36
-46.56
-47.77
-48.59
-49.83
-52.17
-55.98
-61.04
-66.51
-71.07
-73.24
-71.76
-65.98
-56.10
-43.11
-28.58
-14.23
-1.54
8.56
15.75
20.24
22.62
23.61
23.96
24.29
25.07
26.59
28.93
31.99
35.54
39.27
42.87
46.05
48.54
50.13
50.70
50.23
48.74
46.31
42.92
38.53
33.08
26.62
19.39
11.83
4.50
-2.10
-7.68
-12.24
-15.92
-18.98
-21.61
-23.93
-25.98
-27.72
-29.08
-29.99
-30.39
-30.32
-29.94
-29.56
-29.51
-30.02
-31.16
-32.71
-34.37
-35.86
-37.07
-38.12
-39.23
-40.70
-42.68
-45.29
-48.59
-52.56
-57.09
-61.87
-66.41
-70.12
-72.60
-73.75
-73.76
-72.85
-70.95
-67.58
-61.88
-53.10
-40.98
-25.98
-9.18
8.07
24.49
39.17
51.50
61.23
68.36
73.15
76.16
78.14
79.84
81.77
84.08
86.52
88.64
90.01
90.37
89.77
88.51
87.10
86.15
86.16
87.43
89.84
92.83
95.46
96.63
95.46
91.61
85.39
77.62
69.26
60.98
53.00
45.16
37.28
29.45
22.10
15.82
10.94
7.33
4.39
1.37
-2.26
-6.57
-11.23
-15.74
-19.70
-23.03
-25.90
-28.64
-31.57
-34.86
-38.52
-42.38
-46.20
-49.75
-52.89
-55.62
-58.00
-60.06
-61.78
-63.12
-64.14
-65.11
-66.37
-68.12
-70.00
-71.02
-69.69
-64.62
-55.11
-41.68
-25.95
-10.22
3.39
13.59
20.23
24.13
26.54
28.68
31.24
34.41
38.03
41.78
45.47
48.92
51.93
54.12
55.00
54.01
50.82
45.47
38.38
30.27
21.84
13.67
6.12
-0.64
-6.50
-11.45
-15.48
-18.66
-21.06
-22.65
-23.29
-22.69
-20.63
-17.10
-12.51
-7.55
-3.11
0.15
1.93
2.36
1.87
0.93
-0.20
-1.51
-3.16
-5.38
-8.18
-11.40
-14.66
-17.60
-19.98
-21.78
-23.17
-24.40
-25.66
-27.12
-28.84
-30.86
-33.28
-36.20
-39.80
-44.31
-50.00
-57.07
-65.49
-74.82
-84.05
-91.62
-95.77
-94.96
-88.47
-76.62
-60.80
-42.95
-25.09
-8.76
5.21
16.60
25.55
32.37
37.35
40.78
43.03
44.57
45.94
47.57
49.73
52.39
55.33
58.20
60.64
62.44
63.57
64.15
64.43
64.70
65.12
65.73
66.40
66.92
67.09
66.77
65.98
64.86
63.58
62.30
61.10
59.94
58.69
57.17
55.25
52.84
49.97
46.79
43.54
40.46
37.73
35.41
33.36
31.32
29.00
26.16
22.69
18.59
13.93
8.83
3.34
-2.42
-8.28
-13.97
-19.17
-23.63
-27.19
-29.95
-32.24
-34.53
-37.36
-41.15
-46.03
-51.66
-57.25
-61.64
-63.62
-62.31
-57.53
-49.87
-40.61
-31.24
-23.05
-16.81
-12.65
-10.22
-8.97
-8.36
-8.07
-7.96
-8.08
-8.56
-9.55
-11.13
-13.21
-15.52
-17.63
-19.08
-19.51
-18.77
-16.98
-14.51
-11.87
-9.53
-7.86
-6.94
-6.65
-6.62
-6.40
-5.57
-3.83
-1.17
2.10
5.42
8.12
9.62
9.70
8.52
6.67
4.90
3.91
4.00
5.01
6.36
7.31
7.25
5.94
3.54
0.56
-2.47
-5.14
-7.38
-9.35
-11.36
-13.67
-16.36
-19.34
-22.46
-25.60
-28.75
-32.01
-35.55
-39.56
-44.15
-49.38
-55.05
-60.71
-65.48
-68.15
-67.46
-62.50
-53.11
-40.11
-25.09
-10.04
3.26
13.68
20.95
25.46
28.07
29.64
30.88
32.13
33.51
34.93
36.28
37.52
38.66
39.76
40.81
41.73
42.36
42.57
42.33
41.73
40.94
40.06
39.05
37.69
35.76
33.16
30.07
26.89
24.15
22.19
21.02
20.29
19.48
18.09
15.91
13.07
9.92
6.91
4.38
2.45
1.05
-0.02
-1.06
-2.31
-3.94
-5.97
-8.28
-10.65
-12.82
-14.67
-16.22
-17.67
-19.31
-21.36
-23.91
-26.82
-29.83
-32.67
-35.13
-37.18
-39.00
-40.87
-43.15
-46.15
-49.97
-54.34
-58.50
-61.29
-61.36
-57.67
-49.88
-38.57
-25.20
-11.65
0.33
9.58
15.83
19.49
21.39
22.34
22.91
23.40
23.92
24.56
25.42
26.59
28.06
29.65
31.04
31.93
32.18
31.90
31.42
31.07
31.04
31.22
31.25
30.70
29.26
26.88
23.89
20.81
18.13
16.19
15.00
14.33
13.76
12.93
11.63
9.92
8.04
6.30
4.92
3.90
3.06
2.06
0.65
-1.24
-3.48
-5.78
-7.89
-9.64
-11.09
-12.42
-13.88
-15.67
-17.88
-20.49
-23.36
-26.28
-29.02
-31.40
-33.37
-35.07
-36.78
-38.93
-41.84
-45.64
-50.02
-54.22
-57.12
-57.51
-54.44
-47.66
-37.66
-25.69
-13.35
-2.16
6.81
13.16
17.08
19.10
19.84
19.78
19.31
18.68
18.18
18.05
18.49
19.53
21.03
22.71
24.29
25.58
26.56
27.30
27.88
28.28
28.41
28.16
27.44
26.23
24.59
22.62
20.43
18.14
15.91
13.88
12.15
10.72
9.53
8.42
7.28
6.14
5.10
4.32
3.86
3.57
3.17
2.34
0.85
-1.30
-3.91
-6.65
-9.21
-11.35
-13.05
-14.50
-16.05
-18.13
-21.09
-25.01
-29.66
-34.53
-39.00
-42.64
-45.37
-47.50
-49.64
-52.48
-56.50
-61.76
-67.75
-73.36
-77.02
-77.03
-72.09
-61.74
-46.68
-28.69
-10.14
6.70
20.34
30.31
37.14
41.91
45.74
49.43
53.31
57.35
61.33
65.08
68.54
71.73
74.66
77.27
79.43
80.93
81.65
81.56
80.76
79.36
77.38
74.65
70.82
65.57
58.78
50.75
42.15
33.82
26.48
20.41
15.44
11.06
6.75
2.19
-2.62
-7.45
-12.05
-16.24
-20.04
-23.48
-26.58
-29.21
-31.15
-32.22
-32.38
-31.79
-30.79
-29.74
-28.88
-28.36
-28.23
-28.55
-29.49
-31.21
-33.71
-36.71
-39.62
-41.77
-42.74
-42.60
-41.98
-41.84
-42.99
-45.73
-49.69
-53.87
-57.02
-57.95
-55.88
-50.57
-42.32
-31.89
-20.39
-9.04
1.03
9.00
14.48
17.51
18.52
18.07
16.78
15.18
13.66
12.49
11.83
11.76
12.24
13.22
14.58
16.19
17.94
19.71
21.43
22.99
24.26
25.08
25.26
24.65
23.21
20.99
18.21
15.18
12.25
9.72
7.76
6.39
5.52
4.94
4.49
4.05
3.61
3.14
2.57
1.77
0.56
-1.17
-3.36
-5.76
-8.09
-10.15
-11.99
-13.86
-16.10
-18.94
-22.40
-26.29
-30.27
-34.03
-37.35
-40.19
-42.67
-45.00
-47.51
-50.49
-54.19
-58.56
-63.18
-67.13
-69.16
-67.98
-62.74
-53.38
-40.78
-26.52
-12.40
0.08
10.10
17.61
23.01
26.90
29.75
31.86
33.40
34.53
35.44
36.24
37.02
37.75
38.40
38.94
39.46
40.03
40.69
41.37
41.92
42.15
41.92
41.19
39.95
38.25
36.14
33.73
31.20
28.80
26.72
25.03
23.65
22.41
21.07
19.50
17.65
15.60
13.46
11.34
9.34
7.51
5.85
4.31
2.77
1.05
-0.99
-3.44
-6.22
-9.14
-11.96
-14.56
-17.00
-19.53
-22.46
-25.98
-30.04
-34.34
-38.44
-41.95
-44.69
-46.74
-48.40
-50.09
-52.13
-54.74
-57.83
-61.03
-63.52
-64.18
-61.79
-55.50
-45.24
-31.96
-17.49
-4.05
6.56
13.44
16.92
18.19
18.77
19.89
22.15
25.53
29.57
33.78
37.69
41.00
43.49
45.04
45.62
45.42
44.77
44.09
43.76
43.94
44.58
45.44
46.17
46.41
45.87
44.39
41.99
38.89
35.48
32.21
29.44
27.29
25.62
24.07
22.27
19.97
17.20
14.17
11.22
8.65
6.56
4.89
3.41
1.83
-0.10
-2.46
-5.17
-8.02
-10.73
-13.12
-15.15
-16.95
-18.77
-20.82
-23.21
-25.91
-28.73
-31.42
-33.78
-35.74
-37.30
-38.67
-40.12
-42.02
-44.72
-48.38
-52.83
-57.37
-60.84
-61.87
-59.26
-52.49
-41.95
-28.96
-15.30
-2.73
7.52
14.92
19.61
22.14
23.14
23.16
22.61
21.79
20.93
20.24
19.88
19.92
20.33
20.98
21.69
22.31
22.73
22.98
23.08
23.02
22.68
21.87
20.38
18.16
15.38
12.37
9.54
7.25
5.70
4.89
4.70
4.90
5.24
5.47
5.38
4.84
3.86
2.56
1.16
-0.15
-1.29
-2.29
-3.34
-4.60
-6.17
-7.97
-9.80
-11.40
-12.60
-13.44
-14.14
-15.04
-16.46
-18.53
-21.20
-24.19
-27.19
-29.92
-32.30
-34.42
-36.53
-38.98
-42.11
-46.17
-51.21
-56.87
-62.33
-66.29
-67.24
-63.94
-55.90
-43.66
-28.82
-13.49
0.31
11.23
18.90
23.77
26.69
28.50
29.78
30.79
31.69
32.58
33.54
34.62
35.75
36.76
37.44
37.67
37.45
36.98
36.48
36.14
36.07
36.21
36.34
36.16
35.42
33.92
31.68
28.86
25.78
22.76
20.12
18.04
16.54
15.47
14.60
13.67
12.52
11.13
9.61
8.14
6.85
5.71
4.56
3.16
1.31
-1.03
-3.73
-6.52
-9.10
-11.25
-12.88
-14.15
-15.33
-16.79
-18.82
-21.54
-24.80
-28.26
-31.50
-34.18
-36.17
-37.62
-38.92
-40.63
-43.31
-47.25
-52.28
-57.55
-61.62
-62.77
-59.56
-51.43
-38.96
-23.77
-7.94
6.61
18.69
28.01
34.91
40.06
43.98
46.88
48.59
48.78
47.17
43.80
39.14
34.06
29.62
26.69
25.73
26.61
28.77
31.48
34.05
36.04
37.18
37.30
36.27
34.04
30.71
26.58
22.13
17.85
14.09
11.00
8.52
6.47
4.65
2.92
1.21
-0.44
-1.97
-3.30
-4.37
-5.22
-5.97
-6.86
-8.15
-10.01
-12.43
-15.22
-18.02
-20.45
-22.30
-23.62
-24.75
-26.24
-28.62
-32.20
-36.88
-42.19
-47.44
-51.99
-55.42
-57.72
-59.17
-60.31
-61.79
-64.19
-67.89
-72.84
-78.35
-83.05
-85.19
-83.08
-75.79
-63.59
-47.96
-31.15
-15.43
-2.38
7.46
14.53
19.77
24.13
28.24
32.29
36.18
39.75
42.87
45.54
47.82
49.73
51.24
52.29
52.84
52.96
52.83
52.68
52.70
52.91
53.13
53.07
52.43
51.08
49.11
46.80
44.46
42.31
40.37
38.46
36.39
33.99
31.31
28.55
26.00
23.88
22.26
21.03
19.91
18.60
16.87
14.64
11.98
9.09
6.21
3.50
1.02
-1.32
-3.70
-6.24
-8.97
-11.79
-14.51
-16.92
-18.99
-20.83
-22.72
-24.96
-27.77
-31.19
-35.08
-39.18
-43.18
-46.87
-50.16
-53.18
-56.25
-59.85
-64.46
-70.33
-77.21
-84.20
-89.75
-92.02
-89.48
-81.47
-68.57
-52.47
-35.44
-19.63
-6.51
3.40
10.37
15.17
18.61
21.36
23.87
26.36
28.90
31.42
33.77
35.77
37.25
38.15
38.55
38.62
38.56
38.60
38.92
39.62
40.65
41.79
42.76
43.21
42.94
41.94
40.37
38.56
36.82
35.29
33.97
32.72
31.39
29.93
28.36
26.75
25.12
23.45
21.65
19.68
17.57
15.42
13.31
11.22
9.03
6.55
3.69
0.47
-2.93
-6.28
-9.43
-12.37
-15.25
-18.32
-21.78
-25.69
-29.88
-34.02
-37.73
-40.75
-43.02
-44.78
-46.51
-48.81
-52.29
-57.28
-63.62
-70.46
-76.26
-79.09
-77.15
-69.44
-56.22
-39.04
-20.34
-2.67
12.05
23.03
30.51
35.41
38.75
41.25
43.20
44.64
45.62
46.34
47.13
48.28
49.85
51.57
53.08
54.03
54.32
54.09
53.54
52.75
51.59
49.77
47.05
43.41
39.09
34.51
30.15
26.34
23.26
20.95
19.32
18.24
17.49
16.81
15.92
14.57
12.65
10.22
7.53
4.87
2.47
0.41
-1.42
-3.24
-5.20
-7.34
-9.49
-11.35
-12.70
-13.48
-13.88
-14.32
-15.25
-17.01
-19.66
-23.01
-26.61
-30.03
-32.91
-35.22
-37.17
-39.25
-41.95
-45.66
-50.49
-56.04
-61.46
-65.47
-66.67
-63.94
-56.83
-45.83
-32.24
-17.88
-4.51
6.60
14.90
20.53
24.08
26.25
27.62
28.58
29.30
29.87
30.37
30.94
31.73
32.85
34.27
35.83
37.25
38.25
38.72
38.73
38.49
38.22
38.00
37.71
37.06
35.76
33.71
31.05
28.16
25.46
23.27
21.68
20.48
19.35
17.99
16.27
14.35
12.51
10.99
9.83
8.78
7.42
5.42
2.77
-0.20
-2.90
-4.83
-5.79
-6.02
-6.04
-6.46
-7.63
-9.64
-12.32
-15.42
-18.73
-22.11
-25.47
-28.72
-31.75
-34.52
-37.08
-39.58
-42.12
-44.59
-46.47
-46.91
-44.96
-39.99
-32.05
-22.02
-11.38
-1.68
5.93
10.99
13.79
14.97
15.19
14.86
14.10
12.92
11.44
9.95
8.87
8.52
9.00
10.14
11.59
13.00
14.10
14.82
15.20
15.31
15.20
14.83
14.14
13.07
11.60
9.80
7.79
5.77
3.96
2.57
1.71
1.34
1.29
1.33
1.27
1.01
0.59
0.14
-0.23
-0.42
-0.40
-0.21
0.06
0.26
0.24
-0.12
-0.81
-1.68
-2.50
-3.10
-3.47
-3.81
-4.39
-5.44
-6.98
-8.80
-10.59
-12.05
-13.11
-13.86
-14.58
-15.53
-16.88
-18.67
-20.76
-22.99
-25.20
-27.30
-29.31
-31.36
-33.67
-36.53
-40.11
-44.29
-48.54
-51.87
-53.04
-50.98
-45.27
-36.34
-25.47
-14.41
-4.73
2.61
7.48
10.49
12.51
14.30
16.21
18.17
19.90
21.11
21.72
21.80
21.52
21.00
20.25
19.22
17.91
16.40
14.92
13.73
13.02
12.76
12.72
12.61
12.23
11.65
11.23
11.46
12.70
14.94
17.63
19.89
20.76
19.59
16.30
11.39
5.74
0.32
-4.09
-7.05
-8.51
-8.72
-8.13
-7.29
-6.73
-6.83
-7.82
-9.67
-12.17
-15.00
-17.79
-20.23
-22.17
-23.61
-24.72
-25.80
-27.17
-29.09
-31.70
-34.95
-38.74
-42.95
-47.47
-52.12
-56.49
-59.82
-61.10
-59.29
-53.83
-44.93
-33.64
-21.58
-10.41
-1.22
5.71
10.86
15.03
18.89
22.66
26.14
28.94
30.77
31.65
31.91
31.94
32.09
32.48
33.11
33.92
34.87
35.97
37.20
38.42
39.42
39.92
39.71
38.69
36.91
34.56
31.87
29.08
26.35
23.73
21.21
18.74
16.31
14.00
11.94
10.21
8.76
7.38
5.76
3.61
0.82
-2.45
-5.85
-8.98
-11.53
-13.43
-14.89
-16.28
-18.01
-20.36
-23.33
-26.67
-29.91
-32.63
-34.60
-35.90
-36.94
-38.31
-40.61
-44.21
-49.08
-54.66
-59.89
-63.36
-63.69
-59.93
-51.99
-40.72
-27.74
-14.95
-4.00
4.20
9.62
12.89
14.94
16.62
18.42
20.48
22.65
24.70
26.41
27.72
28.63
29.19
29.44
29.42
29.19
28.86
28.58
28.44
28.44
28.36
27.88
26.69
24.67
21.97
18.95
16.05
13.61
11.72
10.15
8.53
6.46
3.76
0.50
-2.96
-6.20
-8.87
-10.92
-12.59
-14.34
-16.60
-19.59
-23.14
-26.86
-30.25
-33.00
-35.16
-37.13
-39.55
-43.06
-48.04
-54.36
-61.27
-67.49
-71.41
-71.54
-67.00
-57.84
-45.16
-30.77
-16.65
-4.34
5.44
12.80
18.38
22.86
26.67
29.87
32.33
33.92
34.73
35.00
35.07
35.16
35.31
35.40
35.26
34.78
33.99
33.01
31.94
30.81
29.51
27.81
25.50
22.50
18.91
15.02
11.25
8.06
5.85
4.89
5.35
7.16
10.09
13.69
17.29
20.19
21.71
21.39
19.19
15.51
11.13
6.94
3.67
1.55
0.24
-1.11
-3.54
-7.96
-14.82
-23.94
-34.47
-44.96
-53.56
-58.40
-58.08
-52.14
-41.33
-27.41
-12.63
0.95
12.13
20.66
27.06
32.07
36.21
39.56
41.80
42.61
41.80
39.60
36.47
32.96
29.52
26.42
23.80
21.78
20.53
20.25
21.06
22.81
25.02
26.96
27.87
27.22
24.92
21.42
17.46
13.92
11.43
10.25
10.23
10.91
11.79
12.40
12.47
11.91
10.68
8.84
6.47
3.70
0.71
-2.27
-4.98
-7.21
-8.82
-9.79
-10.25
-10.48
-10.96
-12.16
-14.50
-18.11
-22.81
-28.07
-33.28
-37.88
-41.57
-44.39
-46.65
-48.89
-51.61
-55.17
-59.45
-63.75
-66.86
-67.35
-64.10
-56.75
-45.98
-33.26
-20.35
-8.72
0.91
8.59
14.95
20.64
26.11
31.37
36.17
40.20
43.26
45.36
46.67
47.42
47.74
47.68
47.22
46.36
45.23
44.04
42.99
42.19
41.55
40.82
39.72
38.02
35.72
33.03
30.33
27.98
26.23
25.03
24.13
23.18
21.85
20.02
17.78
15.41
13.21
11.36
9.92
8.76
7.73
6.65
5.39
3.91
2.17
0.18
-1.99
-4.24
-6.48
-8.62
-10.71
-12.90
-15.41
-18.39
-21.84
-25.55
-29.14
-32.23
-34.60
-36.28
-37.54
-38.87
-40.71
-43.42
-46.95
-50.83
-54.15
-55.66
-54.22
-49.15
-40.60
-29.58
-17.79
-7.00
1.42
6.90
9.74
10.81
11.14
11.53
12.36
13.59
15.04
16.57
18.17
19.94
21.89
23.85
25.50
26.50
26.71
26.30
25.65
25.07
24.65
24.15
23.17
21.40
18.84
15.87
13.01
10.77
9.30
8.43
7.75
6.89
5.65
4.12
2.52
1.06
-0.19
-1.38
-2.74
-4.45
-6.48
-8.63
-10.62
-12.32
-13.83
-15.48
-17.68
-20.69
-24.53
-28.93
-33.49
-37.78
-41.57
-44.77
-47.46
-49.86
-52.28
-55.12
-58.77
-63.50
-69.22
-75.28
-80.50
-83.41
-82.76
-78.01
-69.68
-59.25
-48.69
-39.88
-33.99
-31.29
-31.25
-32.96
-35.61
-38.76
-42.39
-46.65
-51.73
-57.66
-64.43
-72.02
-80.39
-89.24
-97.70
-104.23
-106.94
-104.34
-96.13
-83.57
-69.12
-55.62
-45.29
-39.17
-37.13
-38.21
-41.05
-44.01
-45.08
-42.02
-32.65
-15.82
7.94
36.38
66.16
94.21
118.84
140.12
159.42
178.39
197.72
216.59
232.85
243.89
247.64
243.34
231.53
213.63
191.44
166.43
139.61
111.73
83.57
56.14
30.52
7.46
-12.87
-30.56
-46.28
-61.12
-76.11
-91.81
-107.85
-122.65
-133.79
-138.54
-133.85
-118.24
-92.45
-59.22
-22.35
14.36
48.15
77.16
100.59
119.94
136.98
153.02
168.50
183.12
195.96
206.30
213.03
214.98
212.67
206.15
194.70
177.52
154.94
128.90
102.88
79.21
48.55
7.23
-41.60
-88.82
-124.34
-140.82
-140.14
-126.85
-107.69
-89.66
-76.67
-70.41
-70.16
-73.54
-77.58
-80.41
-79.90
-76.19
-71.61
-67.71
-64.19
-60.15
-55.34
-50.40
-46.53
-44.36
-44.23
-45.66
-46.54
-44.83
-39.78
-32.29
-24.30
-17.94
-14.73
-16.14
-23.41
-36.79
-55.71
-78.56
-102.75
-125.12
-142.48
-152.60
-155.01
-150.62
-140.75
-127.03
-111.10
-94.67
-79.13
-64.34
-49.08
-32.02
-12.59
8.70
30.04
49.70
66.44
79.86
91.12
101.15
109.75
115.84
118.45
117.04
112.99
108.56
106.04
108.41
117.25
131.78
149.18
165.90
178.43
186.17
190.78
187.54
175.41
157.15
136.77
116.27
99.42
82.39
62.91
40.38
14.81
-13.46
-42.80
-71.63
-98.24
-120.38
-136.81
-146.99
-152.51
-156.49
-161.05
-166.31
-171.17
-174.51
-175.68
-175.88
-176.72
-179.77
-185.12
-190.25
-190.14
-179.96
-157.21
-122.41
-79.89
-36.35
0.56
25.95
34.79
27.82
11.95
-5.96
-20.44
-28.69
-30.34
-26.78
-20.12
-12.46
-4.83
1.78
6.16
7.75
7.07
5.97
7.31
14.25
29.08
52.93
84.47
119.76
153.55
180.82
198.32
205.45
204.05
197.01
187.09
175.60
162.35
146.84
129.23
110.60
92.21
74.66
57.32
38.86
17.89
-6.18
-32.64
-59.64
-84.73
-105.61
-120.80
-129.94
-133.70
-133.43
-130.71
-126.72
-122.18
-117.33
-112.22
-106.83
-101.23
-95.64
-90.53
-86.59
-84.67
-85.41
-88.80
-93.90
-99.08
-102.48
-102.58
-98.38
-89.29
-74.97
-55.40
-31.34
-4.64
21.79
44.88
62.46
74.13
81.21
85.94
90.19
94.78
99.46
103.63
107.18
110.78
115.50
121.94
129.74
137.44
143.12
145.17
142.71
135.61
124.16
108.90
90.72
71.04
51.56
33.86
18.94
7.21
-1.22
-6.10
-7.13
-4.42
0.78
6.10
8.78
6.88
0.09
-10.35
-22.69
-35.67
-48.96
-62.60
-76.13
-88.24
-97.20
-102.06
-103.34
-102.97
-103.37
-106.33
-112.29
-120.35
-128.67
-135.10
-137.66
-135.08
-127.33
-115.92
-103.59
-93.32
-86.90
-83.89
-81.54
-76.03
-64.18
-44.98
-20.02
7.43
33.97
57.52
77.66
95.11
110.60
124.03
134.39
140.43
141.58
138.42
132.45
125.28
117.77
109.60
99.65
86.88
71.36
54.67
39.45
28.31
22.72
22.50
26.16
31.80
37.94
43.97
49.98
56.21
62.63
68.79
73.97
77.51
78.97
78.12
74.82
68.95
60.38
49.20
35.84
21.03
5.64
-9.61
-24.29
-38.23
-51.28
-63.00
-72.54
-78.98
-81.94
-82.08
-81.18
-81.55
-84.96
-91.89
-101.17
-110.62
-117.96
-121.58
-120.68
-115.02
-104.38
-88.49
-67.36
-41.76
-13.56
14.36
38.87
57.51
69.29
74.78
75.59
73.29
68.72
61.89
52.38
40.25
26.27
11.63
-2.82
-17.17
-32.22
-48.53
-65.19
-79.52
-87.84
-87.31
-77.61
-61.33
-42.74
-25.71
-11.75
0.27
12.90
28.15
45.78
63.26
77.12
84.65
85.20
80.11
71.65
61.56
50.06
35.93
17.43
-6.25
-34.11
-63.15
-89.12
-107.99
-117.31
-117.10
-109.62
-98.46
-87.08
-77.86
-71.75
-68.67
-68.01
-69.12
-71.20
-72.81
-71.70
-64.94
-50.04
-26.07
5.56
41.37
76.85
107.97
132.63
151.22
166.26
180.71
196.39
213.12
229.23
242.24
249.87
250.92
245.46
235.01
221.35
205.54
187.70
167.63
144.88
119.01
89.87
57.78
24.40
-8.07
-37.25
-60.74
-75.79
-80.38
-74.21
-59.00
-38.35
-15.72
5.77
23.86
33.59
32.96
24.49
13.82
8.08
6.56
7.02
7.59
6.93
5.49
5.27
8.24
15.08
24.78
34.92
43.66
49.58
51.73
49.51
42.88
31.74
15.83
-4.72
-29.01
-54.41
-77.76
-96.55
-109.56
-116.83
-119.56
-119.57
-118.65
-118.18
-118.46
-119.18
-119.79
-119.40
-116.82
-110.95
-101.34
-88.56
-74.17
-59.99
-47.63
-38.12
-31.68
-28.04
-26.83
-28.03
-31.85
-38.41
-47.19
-57.03
-66.55
-74.56
-80.59
-85.00
-88.93
-93.72
-100.49
-109.69
-121.12
-133.84
-146.25
-156.30
-161.91
-161.98
-156.89
-148.71
-140.73
-136.29
-137.11
-141.77
-145.76
-142.75
-128.00
-100.35
-62.86
-21.71
15.84
44.03
60.50
66.76
67.32
66.66
68.05
73.07
81.71
92.56
103.33
111.51
115.05
112.96
104.18
88.56
67.63
46.78
32.81
29.97
36.75
44.57
49.88
51.41
49.38
45.63
42.06
40.21
40.77
43.38
47.06
50.95
53.51
53.81
52.28
50.43
49.43
49.14
48.15
44.82
38.93
31.29
23.84
18.48
15.58
13.38
8.82
-0.71
-15.98
-35.52
-57.34
-79.68
-101.06
-119.65
-132.56
-135.95
-126.21
-101.91
-64.97
-20.82
23.48
61.75
90.30
108.23
116.79
118.35
115.54
110.75
105.87
102.25
100.76
101.55
103.80
106.02
106.88
105.46
101.39
94.86
86.69
78.12
70.09
62.27
53.34
42.02
28.26
13.85
2.13
-3.82
-3.16
1.03
2.35
-5.30
-24.14
-51.27
-80.29
-104.50
-120.29
-127.98
-128.20
-123.75
-119.26
-118.88
-123.14
-128.40
-128.52
-120.56
-102.07
-74.17
-41.94
-12.06
10.20
22.94
25.87
21.24
12.62
3.75
-3.08
-7.02
-7.15
-1.64
11.50
32.61
59.53
87.83
112.93
131.60
143.13
149.23
152.75
156.07
160.37
165.83
171.94
177.99
182.79
184.53
181.31
171.68
155.23
132.72
105.85
76.65
47.10
18.80
-7.01
-29.36
-47.64
-61.74
-72.16
-79.82
-85.91
-91.51
-97.53
-104.35
-111.79
-119.07
-125.19
-129.36
-131.28
-131.15
-129.49
-127.06
-124.55
-122.48
-121.09
-120.00
-118.06
-113.53
-104.79
-91.19
-73.72
-54.78
-37.32
-23.52
-13.86
-7.11
-1.09
6.12
15.25
25.80
36.58
46.46
54.88
61.84
67.57
72.20
75.69
77.88
78.81
78.68
77.89
76.75
75.50
74.09
72.33
69.97
66.76
62.58
57.37
51.28
44.42
36.91
28.58
18.99
7.62
-5.73
-20.52
-35.31
-47.88
-56.04
-58.45
-55.42
-48.96
-42.19
-38.28
-39.29
-45.57
-55.91
-68.23
-80.31
-90.36
-97.19
-100.06
-98.73
-93.43
-85.11
-75.35
-66.12
-59.01
-54.64
-52.35
-50.46
-47.28
-41.79
-34.12
-25.34
-16.76
-9.25
-2.88
2.93
8.99
15.83
23.53
31.72
39.89
47.44
53.69
57.78
58.80
56.15
49.95
41.20
31.60
22.91
16.31
12.05
9.56
7.93
6.51
5.16
4.22
4.16
5.31
7.75
11.27
15.46
19.73
23.41
25.76
26.40
25.43
23.48
21.39
19.83
19.02
18.69
18.25
16.85
13.62
7.91
-0.44
-10.79
-21.62
-30.94
-37.23
-40.31
-41.76
-44.12
-49.63
-59.05
-71.39
-84.42
-95.62
-103.23
-106.40
-105.27
-99.89
-89.77
-74.38
-53.95
-29.91
-4.58
19.33
39.57
54.10
62.64
66.92
69.74
73.28
78.13
83.23
86.32
85.31
77.88
63.98
46.02
27.70
11.91
0.01
-7.83
-12.44
-15.15
-19.42
-28.19
-42.44
-60.53
-78.84
-92.52
-96.71
-88.93
-59.16
-7.47
55.01
112.92
157.05
185.58
199.36
198.51
181.39
148.49
102.82
50.53
0.15
-40.17
-66.73
-81.15
-88.47
-96.08
-109.41
-132.21
-158.97
-184.91
-206.12
-221.34
-231.49
-227.52
-205.03
-165.34
-116.50
-68.30
-28.45
0.67
21.43
39.31
60.07
84.78
110.24
130.28
140.83
141.22
134.71
126.44
120.53
117.78
114.57
106.81
93.23
76.89
63.02
56.36
57.60
62.52
64.29
55.75
33.46
-0.69
-40.45
-78.12
-106.85
-123.11
-126.59
-118.95
-102.86
-81.19
-56.63
-32.18
-11.30
2.85
7.10
-0.58
-20.68
-49.59
-79.89
-103.46
-115.31
-117.80
-112.66
-101.70
-86.53
-67.94
-44.92
-18.23
10.33
38.32
63.27
83.75
99.00
109.63
117.92
127.50
141.89
163.34
191.64
223.57
253.56
273.94
277.08
257.67
214.85
152.75
80.05
7.79
-53.54
-96.31
-117.78
-119.86
-107.50
-86.68
-62.54
-38.40
-15.69
5.25
24.47
41.58
55.66
65.65
70.69
70.33
64.37
52.70
35.49
13.62
-10.82
-34.51
-53.61
-65.26
-69.04
-67.48
-65.41
-68.00
-78.67
-97.54
-121.23
-144.17
-160.84
-167.91
-165.47
-156.71
-146.18
-137.97
-134.07
-134.00
-135.53
-136.22
-134.73
-130.90
-125.02
-116.80
-105.37
-90.14
-71.95
-53.53
-38.50
-29.72
-27.83
-30.95
-35.46
-38.21
-37.92
-35.14
-31.06
-26.24
-20.25
-12.38
-2.54
9.22
21.95
34.03
44.22
52.61
60.45
69.03
78.49
87.65
96.36
103.90
108.46
108.09
102.66
94.62
88.02
86.97
94.80
116.32
153.67
203.60
257.59
304.95
335.66
342.52
323.00
280.88
230.10
187.61
166.25
170.38
196.39
234.32
270.59
292.04
265.86
179.31
52.19
-74.64
-169.84
-226.56
-256.70
-277.22
-300.90
-330.95
-360.44
-381.61
-392.36
-397.47
-400.53
-403.23
-404.30
-400.59
-388.55
-363.03
-322.34
-270.74
-217.09
-169.97
-134.18
-109.35
-91.12
-73.36
-48.70
-12.47
35.38
90.79
148.13
201.45
245.47
276.02
290.69
290.50
278.54
258.39
232.90
204.09
173.40
142.34
112.65
86.12
64.12
46.67
32.47
19.81
8.05
-1.87
-7.91
-8.21
-1.90
10.59
27.87
48.05
69.00
88.59
104.97
117.02
124.72
128.95
130.87
131.15
129.54
125.22
117.61
107.24
95.99
86.30
80.10
77.89
78.55
79.96
79.84
76.45
69.03
57.77
43.69
28.37
13.66
1.26
-7.58
-12.50
-13.96
-13.13
-11.45
-10.30
-10.77
-13.51
-18.72
-26.04
-34.41
-42.28
-48.14
-51.26
-52.29
-53.10
-56.07
-62.90
-73.66
-86.49
-98.15
-105.16
-104.94
-96.74
-81.77
-62.86
-43.69
-27.84
-17.80
-14.32
-16.29
-21.09
-25.56
-27.00
-24.02
-16.98
-7.76
1.08
7.30
9.69
8.07
2.99
-4.88
-14.87
-26.47
-39.10
-51.55
-61.71
-67.03
-65.42
-56.40
-41.13
-21.84
-1.49
17.02
31.88
43.11
52.13
60.71
69.77
78.79
86.52
90.64
88.30
77.58
58.99
35.71
12.44
-6.12
-16.52
-16.22
-5.08
14.50
38.31
61.88
81.13
92.39
92.79
75.30
39.85
-4.88
-46.41
-77.07
-96.15
-106.56
-110.31
-106.51
-92.38
-65.56
-28.75
9.44
37.58
47.42
38.17
16.63
-6.60
-22.49
-26.75
-21.62
-12.95
-6.25
-3.25
-2.01
0.48
5.65
12.25
17.89
19.67
16.40
8.54
-1.84
-12.16
-20.82
-27.65
-33.81
-39.36
-46.02
-54.19
-63.15
-71.25
-76.65
-78.57
-77.33
-74.31
-71.17
-69.56
-70.01
-72.33
-75.33
-77.22
-77.06
-74.42
-69.99
-65.57
-63.47
-64.70
-68.20
-71.34
-68.37
-55.12
-29.94
5.76
48.56
94.09
138.11
175.75
201.97
212.68
205.60
182.41
149.11
114.25
85.56
66.93
57.13
52.12
47.68
41.15
32.32
22.12
11.45
0.53
-10.36
-21.87
-33.38
-43.58
-51.24
-55.54
-56.79
-55.99
-54.57
-53.75
-54.13
-55.35
-56.61
-57.27
-57.01
-56.11
-55.07
-54.51
-54.71
-55.67
-56.87
-57.98
-58.93
-59.98
-61.62
-63.98
-66.96
-69.98
-72.70
-74.03
-73.68
-71.97
-69.40
-66.80
-63.55
-58.70
-51.02
-39.67
-24.42
-6.34
12.73
31.01
45.98
55.98
59.72
56.74
48.14
36.97
27.57
24.29
29.38
41.49
56.06
66.97
69.28
61.68
46.79
29.21
13.21
1.07
-7.28
-12.77
-16.10
-17.09
-15.00
-9.51
-1.52
7.04
14.01
17.59
17.30
13.81
8.45
2.68
-2.60
-7.32
-12.01
-17.30
-23.54
-30.39
-37.01
-42.32
-45.39
-45.80
-43.64
-39.42
-33.73
-27.06
-19.63
-11.43
-2.46
7.08
16.66
25.56
32.90
37.85
39.83
38.55
34.04
26.51
16.27
3.61
-10.79
-26.31
-42.37
-58.39
-73.81
-88.23
-101.43
-113.42
-124.42
-134.21
-142.63
-149.58
-154.91
-158.58
-160.67
-161.49
-161.55
-161.40
-160.82
-159.44
-156.74
-152.00
-144.53
-133.67
-118.73
-98.61
-76.42
-53.21
-29.28
-4.49
21.45
48.55
76.25
103.51
129.16
152.40
173.71
193.78
212.87
230.47
245.41
256.54
263.47
266.41
265.48
260.46
250.08
233.07
209.62
182.26
155.38
133.46
119.07
111.75
108.95
107.25
104.20
99.17
92.88
86.27
79.59
72.05
62.19
48.87
31.65
11.02
-11.67
-34.65
-55.98
-73.76
-86.14
-91.12
-86.54
-70.47
-41.90
-1.63
47.07
98.64
146.33
183.97
207.73
217.00
214.14
202.96
186.98
168.13
146.56
121.51
92.67
61.08
29.13
-0.49
-25.96
-47.23
-65.90
-84.39
-104.82
-128.20
-154.12
-180.96
-206.13
-226.28
-237.73
-237.09
-222.24
-193.30
-152.98
-105.92
-57.20
-10.64
32.38
72.59
111.45
149.38
184.52
212.98
230.25
233.17
221.29
197.18
165.37
130.78
97.14
66.24
38.27
12.75
-10.35
-30.29
-45.90
-56.66
-63.55
-69.25
-77.10
-89.53
-106.67
-126.00
-143.39
-154.80
-157.96
-153.04
-142.00
-127.36
-110.87
-93.09
-73.92
-53.46
-32.74
-13.67
1.77
12.41
18.46
21.41
23.31
25.95
30.13
35.53
41.05
45.32
47.27
46.38
42.76
36.98
29.87
22.29
14.92
8.11
1.91
-3.88
-9.40
-14.67
-19.49
-23.68
-27.18
-30.22
-33.14
-36.17
-39.28
-42.18
-44.52
-46.13
-47.02
-47.38
-47.35
-46.93
-46.00
-44.47
-42.36
-39.84
-37.13
-34.38
-31.62
-28.78
-25.74
-22.22
-17.80
-12.07
-4.84
3.59
12.44
20.63
27.21
31.70
34.23
35.18
34.80
32.92
29.15
23.27
15.75
7.76
0.87
-3.72
-5.71
-5.85
-5.56
-6.25
-8.70
-12.86
-18.07
-23.67
-29.39
-35.21
-40.82
-45.10
-46.34
-43.19
-35.95
-27.02
-20.19
-18.87
-24.26
-34.72
-46.46
-55.47
-59.08
-56.57
-48.66
-36.65
-21.46
-3.64
16.03
36.32
55.72
73.16
88.68
103.26
117.89
132.94
147.91
162.06
175.29
188.69
204.26
223.66
246.85
270.67
289.71
297.93
290.61
266.07
225.97
174.70
118.09
62.11
10.91
-32.59
-66.77
-91.79
-110.04
-125.94
-144.45
-168.67
-197.67
-227.78
-251.38
-259.86
-247.94
-217.23
-176.70
-139.31
-116.46
-113.02
-129.29
-158.33
-189.57
-214.00
-228.15
-235.03
-241.82
-256.13
-282.80
-327.17
-388.96
-461.42
-533.75
-594.58
-635.56
-653.06
-647.99
-599.47
-502.53
-367.83
-217.92
-77.67
35.08
112.50
155.95
171.88
175.48
176.25
180.11
190.49
207.21
227.47
248.13
267.25
285.81
307.61
333.32
363.65
400.96
445.80
495.12
541.75
576.56
592.03
585.24
556.19
499.23
419.48
329.20
242.30
168.13
109.75
66.12
35.44
14.71
1.29
-5.62
-7.54
-7.08
-6.99
-8.72
-12.35
-16.28
-19.71
-22.35
-22.97
-21.23
-18.50
-16.92
-17.99
-22.21
-29.01
-38.33
-50.26
-63.98
-79.47
-95.62
-112.77
-131.60
-153.03
-177.70
-207.15
-241.55
-278.04
-311.25
-336.48
-350.07
-350.48
-338.88
-318.05
-292.68
-266.08
-238.82
-199.26
-142.97
-72.82
3.21
71.13
127.55
169.29
192.25
192.20
167.65
121.66
64.68
12.54
-18.49
-16.58
20.04
84.00
161.58
236.92
294.51
323.78
320.62
286.90
229.04
154.11
69.27
-18.17
-99.85
-167.13
-211.39
-227.05
-215.00
-183.65
-147.48
-120.75
-111.42
-118.39
-133.75
-147.30
-152.06
-146.94
-135.43
-122.38
-110.05
-96.74
-78.17
-50.76
-13.86
29.40
73.28
111.85
140.90
159.17
167.94
169.66
166.25
158.12
144.20
123.03
94.34
60.07
24.49
-6.99
-29.45
-40.16
-39.28
-29.68
-15.73
-1.76
9.08
15.47
17.64
16.69
13.74
9.29
3.13
-5.49
-17.34
-32.91
-52.17
-74.55
-98.75
-122.61
-143.13
-156.88
-160.87
-153.75
-136.85
-114.55
-93.40
-80.21
-79.69
-92.80
-116.78
-146.68
-177.71
-207.09
-234.75
-262.32
-291.40
-321.92
-351.75
-377.42
-395.71
-404.98
-405.56
-399.18
-387.85
-372.96
-354.96
-333.66
-308.82
-280.62
-249.69
-216.80
-182.25
-145.60
-105.82
-61.93
-13.62
38.30
92.11
145.66
197.14
245.70
291.76
336.74
382.23
429.01
476.14
520.65
558.26
584.61
596.71
593.89
577.83
551.82
519.63
484.58
449.13
414.91
382.99
354.07
328.49
306.11
286.26
267.88
249.88
231.38
211.96
191.72
171.15
150.86
131.27
112.46
94.15
75.94
57.59
39.29
21.70
5.76
-7.67
-18.09
-25.56
-30.61
-34.04
-36.52
-38.40
-39.59
-39.69
-38.25
-35.06
-30.30
-24.46
-18.17
-11.96
-6.11
-0.66
4.43
9.21
13.65
17.70
21.37
24.78
28.02
31.08
33.70
35.40
35.64
34.00
30.31
24.70
17.55
9.44
1.07
-6.79
-13.36
-17.97
-20.13
-19.76
-17.17
-13.07
-8.48
-4.54
-2.33
-2.73
-6.20
-12.69
-21.60
-31.91
-42.52
-52.51
-61.34
-68.87
-75.18
-80.27
-84.00
-86.08
-86.32
-84.80
-81.96
-78.43
-74.82
-71.46
-68.35
-65.21
-61.75
-57.84
-53.65
-49.60
-46.15
-43.60
-41.92
-40.73
-39.41
-37.35
-34.13
-29.61
-23.97
-17.54
-10.79
-4.09
2.23
7.95
12.88
16.83
19.58
20.89
20.65
19.03
16.57
14.21
12.91
13.35
15.64
19.25
23.30
26.98
29.82
31.78
33.13
34.10
34.72
34.76
33.87
31.70
28.06
22.94
16.51
9.11
1.34
-6.04
-12.14
-16.32
-18.36
-18.70
-18.23
-18.08
-19.12
-21.71
-25.66
-30.35
-35.14
-39.62
-43.70
-47.57
-51.42
-55.25
-58.77
-61.46
-62.76
-62.32
-60.07
-56.25
-51.38
-46.01
-40.54
-35.06
-29.29
-22.66
-14.58
-4.67
7.04
19.99
33.22
45.55
55.90
63.53
68.28
70.56
71.21
71.20
71.26
71.59
71.79
70.93
67.97
62.04
52.81
40.63
26.43
11.40
-3.31
-16.84
-28.72
-38.76
-46.86
-52.85
-56.44
-57.36
-55.58
-51.44
-45.51
-38.43
-30.54
-21.80
-11.87
-0.46
12.35
25.88
39.06
50.69
59.95
66.70
71.48
75.26
79.01
83.30
88.16
93.12
97.57
101.10
103.87
106.73
111.01
118.08
128.74
142.82
159.05
175.47
190.02
201.20
208.30
211.26
210.25
205.20
195.62
180.62
159.27
130.88
95.41
53.65
7.43
-40.51
-86.83
-128.27
-162.75
-190.61
-215.19
-241.70
-274.93
-316.16
-361.20
-400.97
-424.46
-422.75
-392.07
-334.65
-257.55
-170.30
-82.84
-4.21
58.08
98.75
115.37
108.86
83.08
43.77
-2.92
-51.21
-95.69
-131.02
-151.99
-154.69
-137.85
-103.83
-58.45
-9.45
35.56
70.76
92.85
101.13
96.81
82.37
60.97
36.12
11.33
-10.23
-26.18
-35.31
-37.87
-35.42
-30.37
-25.24
-21.99
-21.61
-23.97
-28.14
-32.75
-36.56
-38.77
-39.30
-38.64
-37.58
-36.88
-36.88
-37.47
-38.12
-38.27
-37.55
-35.93
-33.76
-31.53
-29.73
-28.61
-28.22
-28.43
-29.04
-29.79
-30.42
-30.57
-29.91
-28.15
-25.16
-21.02
-15.93
-10.20
-4.14
2.00
7.97
13.49
18.23
21.81
23.95
24.56
23.88
22.40
20.77
19.50
18.88
18.85
19.10
19.27
19.06
18.33
17.09
15.43
13.47
11.39
9.42
7.80
6.71
6.21
6.19
6.40
6.50
6.11
4.98
3.01
0.34
-2.63
-5.43
-7.67
-9.14
-9.94
-10.34
-10.69
-11.20
-11.91
-12.69
-13.38
-13.82
-13.99
-13.93
-13.79
-13.77
-14.06
-14.80
-15.94
-17.21
-18.10
-18.00
-16.46
-13.32
-8.86
-3.69
1.48
6.07
9.80
12.66
14.86
16.54
17.76
18.49
18.69
18.38
17.73
16.95
16.24
15.68
15.27
14.95
14.64
14.38
14.28
14.47
15.02
15.87
16.79
17.39
17.34
16.41
14.64
12.32
9.89
7.77
6.30
5.61
5.63
6.12
6.74
7.14
6.96
6.03
4.30
1.99
-0.58
-3.02
-5.12
-6.82
-8.24
-9.59
-10.97
-12.43
-13.90
-15.33
-16.75
-18.21
-19.82
-21.62
-23.59
-25.66
-27.66
-29.35
-30.37
-30.30
-28.71
-25.37
-20.40
-14.26
-7.71
-1.56
3.53
7.22
9.52
10.75
11.27
11.43
11.42
11.33
11.18
10.97
10.76
10.63
10.63
10.72
10.87
11.07
11.38
11.92
12.82
14.07
15.50
16.81
17.67
17.85
17.30
16.17
14.72
13.23
11.86
10.73
9.82
9.14
8.66
8.36
8.14
7.84
7.29
6.37
5.14
3.78
2.55
1.61
0.97
0.45
-0.15
-0.98
-2.06
-3.27
-4.49
-5.65
-6.71
-7.68
-8.51
-9.16
-9.65
-10.09
-10.75
-11.90
-13.72
-16.14
-18.74
-20.87
-21.83
-21.11
-18.53
-14.37
-9.20
-3.80
1.14
5.13
7.98
9.73
10.57
10.72
10.35
9.60
8.64
7.70
7.08
7.01
7.59
8.66
9.93
11.01
11.65
11.77
11.50
11.05
10.58
10.14
9.67
9.10
8.37
7.54
6.74
6.11
5.71
5.47
5.25
4.85
4.16
3.16
2.02
0.94
0.14
-0.24
-0.19
0.19
0.70
1.16
1.37
1.16
0.45
-0.77
-2.37
-4.13
-5.77
-7.08
-7.97
-8.54
-9.00
-9.62
-10.63
-12.10
-13.96
-15.94
-17.63
-18.58
-18.39
-16.81
-13.84
-9.76
-5.05
-0.33
3.87
7.15
9.32
10.41
10.55
9.97
8.93
7.74
6.68
5.98
5.74
5.92
6.32
6.73
6.94
6.86
6.54
6.11
5.68
5.32
4.95
4.44
3.64
2.43
0.80
-1.15
-3.23
-5.19
-6.82
-7.97
-8.64
-8.94
-9.10
-9.30
-9.72
-10.37
-11.22
-12.14
-13.07
-13.98
-14.88
-15.81
-16.77
-17.80
-18.94
-20.27
-21.89
-23.74
-25.64
-27.21
-28.05
-27.89
-26.66
-24.43
-21.29
-17.19
-11.95
-5.43
2.31
10.85
19.59
28.00
35.80
43.03
49.80
55.97
60.89
63.52
62.73
57.86
49.02
37.13
23.62
9.97
-2.69
-13.76
-23.03
-30.32
-35.31
-37.47
-36.33
-31.85
-24.61
-15.81
-6.98
0.54
5.91
8.94
10.00
9.69
8.56
7.04
5.35
3.69
2.27
1.34
1.12
1.72
3.01
4.65
6.13
6.96
6.78
5.50
3.31
0.58
-2.23
-4.73
-6.69
-8.07
-9.01
-9.70
-10.33
-11.00
-11.71
-12.35
-12.82
-13.06
-13.12
-13.21
-13.65
-14.74
-16.70
-19.46
-22.67
-25.73
-27.95
-28.71
-27.63
-24.67
-20.09
-14.44
-8.33
-2.37
2.97
7.43
10.93
13.56
15.45
16.80
17.75
18.43
18.96
19.41
19.86
20.33
20.82
21.31
21.76
22.16
22.49
22.73
22.86
22.87
22.75
22.50
22.12
21.68
21.20
20.74
20.29
19.81
19.25
18.49
17.46
16.11
14.46
12.57
10.55
8.53
6.63
4.93
3.42
2.07
0.79
-0.47
-1.77
-3.11
-4.51
-5.98
-7.54
-9.19
-10.90
-12.58
-14.11
-15.40
-16.41
-17.17
-17.80
-18.46
-19.31
-20.45
-21.94
-23.75
-25.78
-27.78
-29.41
-30.23
-29.82
-27.87
-24.36
-19.57
-14.04
-8.44
-3.38
0.76
3.83
5.89
7.06
7.47
7.18
6.28
4.97
3.55
2.39
1.81
1.99
2.87
4.18
5.62
6.92
7.96
8.76
9.40
9.88
10.11
9.92
9.23
8.09
6.65
5.16
3.84
2.88
2.39
2.43
3.01
4.03
5.27
6.40
7.11
7.15
6.49
5.31
3.85
2.33
0.84
-0.59
-2.02
-3.41
-4.71
-5.89
-7.02
-8.33
-10.20
-12.92
-16.60
-21.02
-25.56
-29.44
-31.82
-32.11
-30.15
-26.19
-20.82
-14.76
-8.67
-3.02
1.91
6.00
9.23
11.63
13.29
14.32
14.87
15.12
15.25
15.39
15.72
16.33
17.29
18.49
19.75
20.79
21.36
21.29
20.62
19.51
18.19
16.84
15.57
14.32
13.01
11.53
9.85
8.04
6.22
4.55
3.13
2.01
1.15
0.51
0.07
-0.16
-0.24
-0.33
-0.73
-1.80
-3.79
-6.70
-10.20
-13.71
-16.62
-18.53
-19.42
-19.68
-19.91
-20.69
-22.35
-24.88
-27.99
-31.11
-33.60
-34.83
-34.36
-32.02
-27.98
-22.74
-16.91
-11.16
-5.91
-1.37
2.46
5.73
8.57
11.04
13.17
14.96
16.45
17.70
18.77
19.68
20.46
21.08
21.54
21.84
22.01
22.11
22.14
22.06
21.79
21.24
20.34
19.12
17.67
16.13
14.62
13.28
12.15
11.26
10.58
10.01
9.45
8.81
8.06
7.25
6.47
5.81
5.27
4.75
4.07
3.08
1.78
0.35
-0.97
-1.99
-2.73
-3.41
-4.32
-5.67
-7.44
-9.40
-11.27
-12.87
-14.22
-15.49
-16.93
-18.75
-21.01
-23.68
-26.58
-29.38
-31.56
-32.55
-31.78
-28.95
-24.16
-17.98
-11.23
-4.79
0.68
4.88
7.81
9.72
10.93
11.76
12.37
12.84
13.24
13.61
14.06
14.68
15.52
16.54
17.63
18.70
19.68
20.59
21.47
22.25
22.78
22.78
22.01
20.36
17.98
15.24
12.61
10.54
9.27
8.82
8.99
9.48
10.02
10.39
10.50
10.37
10.08
9.69
9.29
8.90
8.52
8.14
7.74
7.32
6.91
6.53
6.21
5.93
5.57
4.98
3.96
2.44
0.45
-1.82
-4.06
-6.07
-7.77
-9.31
-10.93
-12.87
-15.22
-17.85
-20.43
-22.50
-23.60
-23.37
-21.64
-18.47
-14.08
-8.92
-3.56
1.40
5.45
8.29
9.90
10.53
10.52
10.25
9.99
9.87
9.90
10.05
10.32
10.72
11.33
12.11
12.99
13.80
14.40
14.69
14.67
14.36
13.78
12.87
11.56
9.83
7.79
5.68
3.85
2.51
1.72
1.31
0.98
0.48
-0.30
-1.31
-2.37
-3.35
-4.25
-5.18
-6.29
-7.65
-9.22
-10.77
-12.04
-12.90
-13.33
-13.49
-13.57
-13.73
-14.02
-14.40
-14.76
-15.07
-15.34
-15.67
-16.20
-17.06
-18.31
-19.95
-21.92
-24.07
-26.26
-28.28
-29.93
-30.98
-31.18
-30.29
-28.13
-24.71
-20.21
-15.06
-9.82
-5.10
-1.39
1.04
2.16
2.21
1.57
0.70
0.02
-0.16
0.28
1.33
2.78
4.32
5.63
6.45
6.67
6.41
5.90
5.44
5.28
5.53
6.16
7.01
7.91
8.78
9.62
10.51
11.57
12.83
14.21
15.50
16.44
16.73
16.17
14.73
12.52
9.77
6.79
3.82
1.04
-1.48
-3.69
-5.57
-7.15
-8.48
-9.70
-11.07
-12.89
-15.41
-18.64
-22.30
-25.80
-28.39
-29.42
-28.51
-25.71
-21.45
-16.39
-11.19
-6.33
-2.02
1.71
4.87
7.45
9.31
10.29
10.33
9.55
8.25
6.85
5.73
5.14
5.13
5.63
6.45
7.38
8.22
8.76
8.82
8.31
7.28
5.95
4.63
3.71
3.43
3.90
5.01
6.47
7.93
9.03
9.51
9.24
8.21
6.58
4.60
2.62
0.99
-0.04
-0.34
0.05
0.92
1.96
2.81
3.25
3.12
2.51
1.60
0.68
-0.04
-0.49
-0.76
-1.07
-1.62
-2.49
-3.52
-4.45
-5.04
-5.26
-5.35
-5.78
-7.05
-9.48
-13.09
-17.54
-22.25
-26.48
-29.54
-30.92
-30.33
-27.77
-23.56
-18.27
-12.55
-7.08
-2.37
1.27
3.75
5.13
5.60
5.40
4.84
4.26
3.94
4.04
4.57
5.36
6.22
6.94
7.50
7.99
8.61
9.53
10.75
12.13
13.39
14.23
14.45
13.95
12.82
11.25
9.40
7.43
5.45
3.57
1.91
0.61
-0.22
-0.56
-0.49
-0.14
0.31
0.71
0.90
0.73
0.04
-1.24
-3.05
-5.22
-7.45
-9.46
-11.06
-12.22
-13.06
-13.78
-14.57
-15.57
-16.73
-17.85
-18.58
-18.51
-17.29
-14.73
-10.84
-5.91
-0.39
5.17
10.23
14.35
17.33
19.19
20.14
20.46
20.37
19.98
19.36
18.54
17.65
16.83
16.20
15.74
15.37
15.01
14.61
14.26
14.08
14.09
14.22
14.29
14.08
13.49
12.55
11.42
10.29
9.25
8.29
7.24
5.94
4.24
2.16
-0.16
-2.46
-4.42
-5.87
-6.77
-7.27
-7.63
-8.15
-9.02
-10.30
-11.90
-13.68
-15.42
-17.00
-18.33
-19.40
-20.29
-21.10
-21.97
-23.02
-24.32
-25.81
-27.28
-28.30
-28.34
-26.91
-23.65
-18.60
-12.18
-5.11
1.74
7.58
11.91
14.53
15.54
15.22
13.93
12.10
10.18
8.71
8.18
8.95
11.03
14.07
17.40
20.24
21.94
22.17
20.95
18.56
15.43
11.96
8.50
5.29
2.56
0.46
-0.90
-1.52
-1.48
-1.03
-0.48
-0.19
-0.43
-1.37
-2.96
-4.98
-7.08
-8.91
-10.24
-10.98
-11.28
-11.40
-11.65
-12.33
-13.59
-15.42
-17.60
-19.73
-21.25
-21.62
-20.42
-17.48
-13.01
-7.46
-1.52
4.15
9.00
12.77
15.40
16.97
17.58
17.29
16.19
14.46
12.43
10.51
9.08
8.32
8.24
8.66
9.35
10.16
11.05
12.00
12.94
13.70
14.07
13.85
12.99
11.57
9.75
7.71
5.58
3.48
1.52
-0.20
-1.61
-2.77
-3.81
-4.96
-6.43
-8.29
-10.44
-12.67
-14.75
-16.56
-18.15
-19.67
-21.34
-23.34
-25.80
-28.71
-31.99
-35.35
-38.29
-40.16
-40.28
-38.20
-33.84
-27.62
-20.32
-12.86
-5.98
-0.14
4.52
8.20
11.17
13.76
16.23
18.65
20.98
23.06
24.68
25.73
26.22
26.28
26.15
26.03
26.07
26.29
26.61
26.88
26.95
26.64
25.85
24.50
22.62
20.32
17.83
15.46
13.50
12.17
11.53
11.38
11.37
11.10
10.26
8.82
6.97
5.08
3.49
2.38
1.69
1.24
0.77
0.08
-0.94
-2.36
-4.22
-6.49
-9.12
-11.91
-14.63
-17.05
-19.08
-20.85
-22.69
-25.01
-28.07
-31.91
-36.17
-40.21
-43.19
-44.30
-43.00
-39.13
-33.06
-25.48
-17.33
-9.43
-2.42
3.42
8.05
11.61
14.26
16.12
17.33
17.99
18.31
18.47
18.70
19.13
19.75
20.52
21.28
21.93
22.45
22.90
23.39
23.96
24.58
25.03
25.06
24.44
23.08
21.11
18.80
16.49
14.51
13.01
12.06
11.58
11.40
11.31
11.13
10.68
9.92
8.88
7.64
6.37
5.22
4.33
3.80
3.63
3.76
4.00
4.14
3.92
3.15
1.75
-0.24
-2.64
-5.21
-7.69
-9.86
-11.64
-13.08
-14.31
-15.47
-16.63
-17.77
-18.88
-20.10
-21.72
-24.12
-27.46
-31.55
-35.64
-38.66
-39.58
-37.86
-33.69
-28.02
-22.18
-17.43
-14.61
-13.81
-14.39
-15.13
-14.53
-11.10
-3.67
8.30
24.43
43.20
61.94
77.35
86.34
87.13
79.99
67.15
51.93
37.25
24.44
12.79
0.13
-16.01
-37.07
-62.96
-92.16
-122.35
-151.06
-175.95
-194.83
-205.67
-206.72
-196.89
-176.23
-146.16
-109.40
-69.49
-29.95
6.39
37.91
64.33
86.40
105.26
121.87
136.44
148.41
156.76
160.74
160.43
156.97
152.26
148.39
146.89
148.34
152.20
157.02
160.97
162.18
159.17
151.11
137.84
120.07
99.19
77.20
56.25
38.25
24.30
14.31
6.95
0.03
-8.58
-20.12
-34.28
-49.45
-63.48
-74.69
-82.55
-87.64
-90.89
-92.82
-93.00
-90.22
-83.26
-71.78
-56.90
-41.05
-27.36
-18.57
-15.95
-18.34
-22.21
-22.66
-15.72
-0.51
19.49
37.50
46.14
40.85
22.06
-4.91
-32.31
-53.11
-63.53
-63.57
-55.83
-43.70
-29.94
-16.44
-4.65
4.04
8.33
7.54
2.04
-6.59
-15.90
-23.36
-27.15
-26.76
-23.09
-18.11
-14.06
-12.68
-14.56
-19.05
-24.70
-29.89
-33.50
-35.34
-35.98
-36.36
-37.25
-38.75
-40.26
-40.78
-39.34
-35.46
-29.35
-21.80
-13.88
-6.60
-0.65
3.70
6.52
8.07
8.70
8.81
8.76
8.83
9.17
9.69
10.16
10.20
9.55
8.15
6.23
4.27
2.80
2.22
2.50
3.17
3.42
2.38
-0.46
-4.99
-10.48
-15.82
-19.99
-22.50
-23.52
-23.79
-24.43
-26.72
-31.83
-40.61
-53.12
-68.06
-82.63
-93.11
-96.42
-91.80
-81.74
-71.23
-65.57
-67.88
-77.66
-91.31
-104.14
-112.65
-115.56
-113.18
-106.01
-93.66
-75.14
-49.98
-19.40
13.63
45.47
73.32
96.17
114.53
129.26
140.50
147.25
148.06
142.13
130.22
114.65
98.39
83.82
71.95
62.44
54.23
46.42
38.76
31.53
25.00
18.95
12.70
5.57
-2.52
-10.76
-17.72
-21.84
-22.04
-17.96
-10.15
0.03
10.57
19.23
24.03
24.00
19.59
12.55
5.27
-0.15
-2.56
-2.00
0.74
4.60
8.76
12.79
16.52
20.05
23.53
27.22
31.29
35.80
40.62
45.43
49.90
53.74
56.76
58.82
59.89
59.94
59.11
57.62
55.69
53.47
50.85
47.66
43.86
39.72
35.84
32.95
31.54
31.66
32.86
34.34
35.29
35.05
33.38
30.47
26.87
23.47
21.29
21.21
23.65
28.36
34.35
40.00
43.31
42.17
34.74
19.92
-1.98
-28.91
-57.18
-82.39
-100.72
-110.23
-111.55
-107.38
-101.39
-96.97
-96.54
-101.45
-112.10
-127.77
-146.24
-163.74
-175.56
-177.58
-167.98
-148.11
-122.07
-94.95
-70.81
-51.34
-35.94
-22.90
-10.79
0.60
10.53
17.98
22.48
24.42
24.95
25.27
26.05
27.34
28.76
30.09
31.60
33.83
37.26
42.06
47.75
53.30
57.69
60.42
61.62
61.94
61.73
60.81
58.88
55.63
51.20
46.61
43.65
44.39
50.38
61.39
75.25
88.65
97.58
98.56
89.81
71.96
47.34
21.90
2.15
-9.53
-13.00
-10.50
-5.65
-2.02
-1.81
-5.34
-11.35
-18.26
-24.95
-30.65
-35.14
-38.34
-39.96
-39.52
-36.65
-31.49
-25.07
-18.98
-14.41
-11.89
-10.84
-9.80
-6.84
-0.31
10.50
24.71
40.09
54.08
64.73
71.57
75.75
79.19
83.19
87.14
88.17
82.15
65.86
38.60
3.07
-35.42
-70.96
-99.08
-118.15
-129.47
-136.37
-142.40
-149.96
-159.24
-168.22
-173.47
-171.38
-159.47
-136.90
-104.45
-64.42
-20.57
21.94
57.19
79.92
87.51
81.40
66.94
51.39
40.86
37.86
40.80
45.67
48.79
48.84
46.98
45.50
45.77
47.21
47.69
44.93
37.85
27.15
14.99
3.82
-4.64
-9.96
-12.92
-14.73
-16.32
-17.89
-18.98
-18.93
-17.42
-14.82
-12.02
-10.01
-9.40
-10.11
-11.42
-12.36
-12.15
-10.61
-8.18
-5.77
-4.32
-4.37
-5.94
-8.47
-11.18
-13.36
-14.62
-14.99
-14.81
-14.56
-14.56
-14.99
-15.77
-16.64
-17.35
-17.71
-17.67
-17.33
-16.90
-16.57
-16.45
-16.54
-16.81
-17.31
-18.27
-20.01
-22.74
-26.35
-30.27
-33.57
-35.27
-34.69
-31.74
-26.90
-21.03
-15.11
-9.89
-5.86
-3.17
-1.72
-1.14
-0.93
-0.42
1.02
3.79
7.92
13.00
18.28
22.99
26.58
28.94
30.36
31.31
32.20
33.15
33.99
34.41
34.16
33.16
31.54
29.47
27.10
24.47
21.64
18.72
15.95
13.54
11.61
10.00
8.34
6.23
3.42
0.00
-3.65
-7.05
-9.84
-12.03
-13.98
-16.30
-19.56
-24.13
-29.94
-36.50
-42.96
-48.30
-51.63
-52.51
-51.32
-49.31
-48.23
-49.54
-53.49
-58.59
-61.82
-59.84
-50.51
-34.30
-14.46
3.77
14.90
15.02
3.08
-18.74
-45.45
-70.24
-86.01
-86.90
-69.92
-36.05
9.58
58.83
102.76
134.16
149.47
149.32
137.71
119.97
100.72
82.56
65.87
49.84
33.62
17.36
2.39
-9.40
-16.43
-18.23
-15.79
-11.14
-6.44
-3.15
-1.48
-0.67
0.55
3.45
9.05
18.09
30.62
45.48
59.86
69.60
70.41
59.85
38.89
12.12
-13.78
-32.71
-41.31
-39.75
-30.74
-17.59
-2.76
12.56
27.75
41.93
53.68
61.39
63.96
61.33
54.51
45.10
34.76
24.79
16.11
9.21
4.23
0.89
-1.47
-3.94
-7.83
-14.48
-24.93
-39.49
-57.32
-75.98
-91.64
-99.83
-96.88
-81.42
-55.26
-23.05
9.29
36.58
55.98
67.44
72.88
74.72
74.80
73.88
72.10
69.43
65.88
61.32
55.14
46.25
33.53
16.47
-4.43
-27.67
-51.23
-73.27
-92.43
-107.88
-118.90
-124.79
-124.99
-119.53
-109.30
-95.99
-81.56
-67.39
-53.94
-40.70
-26.89
-12.12
3.28
18.39
32.32
44.65
55.52
65.22
73.75
80.61
85.00
86.41
85.02
81.80
77.98
74.47
71.33
67.83
62.80
55.40
45.56
34.01
22.02
10.89
1.57
-5.43
-10.02
-12.31
-12.62
-11.35
-9.07
-6.46
-4.19
-2.81
-2.56
-3.31
-4.68
-6.16
-7.42
-8.42
-9.35
-10.46
-11.85
-13.34
-14.57
-15.33
-15.84
-16.94
-19.85
-25.82
-35.49
-48.61
-63.97
-79.77
-94.10
-105.40
-112.70
-115.49
-113.43
-106.23
-93.67
-75.92
-53.98
-29.85
-6.19
14.41
30.28
41.20
48.35
53.67
58.95
65.07
71.80
78.05
82.53
84.26
82.86
78.49
71.66
63.05
53.42
43.72
35.08
28.72
25.63
26.22
30.10
36.12
42.81
48.91
53.81
57.76
61.54
66.04
71.57
77.57
82.69
85.26
84.00
78.50
69.35
57.90
45.74
34.21
24.07
15.57
8.52
2.68
-2.16
-6.11
-9.20
-11.55
-13.32
-14.73
-15.91
-16.87
-17.42
-17.30
-16.28
-14.30
-11.50
-8.22
-4.87
-1.90
0.37
1.81
2.48
2.67
2.71
2.86
3.09
3.01
1.96
-0.71
-5.25
-11.30
-17.97
-24.20
-29.29
-33.17
-36.21
-38.71
-40.47
-40.83
-39.28
-36.11
-32.67
-30.87
-32.04
-35.99
-40.94
-44.34
-44.35
-40.88
-35.64
-31.18
-29.48
-31.02
-34.74
-38.88
-42.01
-43.66
-44.13
-43.86
-42.83
-40.38
-35.78
-28.70
-19.81
-10.62
-3.01
1.43
1.94
-1.27
-7.30
-14.92
-22.96
-30.41
-36.51
-40.73
-42.59
-41.77
-38.14
-31.82
-23.38
-13.85
-4.54
3.22
8.47
10.85
10.60
8.38
5.01
1.09
-3.16
-7.69
-12.44
-16.98
-20.53
-22.22
-21.52
-18.56
-14.09
-8.98
-3.68
2.10
9.06
17.50
26.68
34.81
39.71
39.86
35.06
26.55
16.31
6.34
-1.91
-7.56
-10.05
-8.97
-4.13
4.04
14.23
24.31
32.09
36.01
35.76
32.17
26.59
20.01
12.55
3.58
-7.53
-20.48
-33.47
-43.77
-48.87
-47.92
-42.34
-34.97
-28.71
-25.37
-25.48
-29.08
-36.24
-46.66
-58.24
-66.26
-64.41
-48.01
-17.58
19.70
52.24
69.26
65.90
45.47
17.11
-9.27
-27.88
-38.49
-44.50
-49.22
-53.10
-53.85
-48.57
-36.62
-20.66
-5.88
2.59
2.01
-6.94
-20.68
-34.58
-45.01
-50.56
-52.08
-51.68
-51.32
-51.79
-52.44
-51.76
-48.34
-41.79
-33.07
-24.08
-16.84
-12.60
-11.35
-11.95
-12.72
-12.25
-9.98
-6.27
-2.08
1.52
3.92
5.10
5.50
5.76
6.36
7.40
8.71
10.03
11.21
12.31
13.59
15.26
17.34
19.52
21.26
21.93
21.07
18.48
14.34
9.14
3.60
-1.45
-5.30
-7.48
-7.95
-7.12
-5.74
-4.64
-4.52
-5.76
-8.36
-12.02
-16.27
-20.57
-24.46
-27.61
-29.96
-31.71
-33.39
-35.54
-38.58
-42.40
-46.36
-49.39
-50.28
-48.12
-42.57
-33.94
-23.06
-10.98
1.26
12.74
22.78
30.87
36.70
40.17
41.49
41.20
40.11
39.20
39.29
40.84
43.73
47.29
50.52
52.43
52.49
50.80
48.11
45.41
43.55
42.85
42.96
43.11
42.57
40.89
38.15
34.75
31.13
27.53
23.92
20.16
16.19
12.17
8.47
5.42
3.14
1.39
-0.29
-2.48
-5.65
-10.07
-15.81
-22.67
-30.29
-38.05
-45.23
-51.14
-55.48
-58.50
-60.93
-63.61
-66.87
-70.07
-71.63
-69.58
-62.50
-50.20
-34.05
-16.52
-0.31
12.55
21.17
25.76
27.29
27.06
26.59
27.48
31.33
39.19
51.04
65.45
79.87
91.51
98.46
100.40
98.58
95.00
91.30
87.90
83.95
78.03
69.20
57.74
45.19
33.61
24.66
18.81
15.37
13.00
10.66
8.17
6.23
5.77
7.32
10.50
14.28
17.47
19.37
20.00
19.88
19.67
19.65
19.71
19.45
18.52
16.94
15.12
13.76
13.52
14.64
16.72
18.88
19.95
18.97
15.53
9.96
3.29
-2.98
-7.27
-8.38
-5.80
0.06
7.90
15.84
21.91
24.60
23.23
18.15
10.53
1.99
-5.89
-11.93
-15.58
-16.90
-16.34
-14.43
-11.61
-8.06
-3.76
1.31
7.15
13.62
20.43
27.16
33.17
37.66
39.75
38.78
34.53
27.46
18.65
9.48
1.22
-5.39
-10.36
-14.24
-17.90
-22.14
-27.43
-33.82
-40.95
-48.18
-54.71
-59.66
-62.25
-61.93
-58.46
-51.93
-42.78
-31.66
-19.31
-6.34
6.90
20.29
33.74
46.85
58.80
68.50
75.03
78.24
78.96
78.69
78.94
80.45
82.89
85.16
86.01
84.72
81.23
75.95
69.24
61.28
52.07
41.80
31.03
20.58
11.15
2.93
-4.62
-12.48
-21.49
-31.65
-41.74
-49.42
-52.00
-47.41
-35.19
-16.81
4.63
25.52
42.82
54.99
61.96
64.63
63.90
60.12
52.97
42.02
27.41
10.16
-7.98
-25.22
-40.36
-53.13
-63.89
-73.15
-81.02
-87.09
-90.77
-91.72
-90.25
-87.22
-83.73
-80.66
-78.39
-76.72
-75.10
-72.97
-69.99
-66.25
-62.25
-58.66
-56.04
-54.64
-54.25
-54.38
-54.45
-54.04
-53.05
-51.56
-49.78
-47.87
-45.92
-43.94
-41.88
-39.61
-36.82
-33.11
-28.07
-21.56
-13.77
-5.26
3.10
10.45
16.14
19.89
21.79
22.24
21.77
20.82
19.69
18.55
17.47
16.57
16.08
16.21
17.04
18.41
19.90
21.05
21.59
21.55
21.25
21.08
21.22
21.56
21.70
21.24
20.01
18.13
15.98
13.97
12.35
11.13
10.11
9.01
7.59
5.80
3.74
1.60
-0.37
-1.99
-3.20
-4.06
-4.76
-5.50
-6.46
-7.74
-9.36
-11.26
-13.39
-15.63
-17.86
-19.94
-21.76
-23.26
-24.52
-25.82
-27.55
-30.05
-33.40
-37.19
-40.57
-42.39
-41.66
-37.92
-31.47
-23.28
-14.66
-6.80
-0.39
4.44
7.90
10.32
11.87
12.53
12.27
11.14
9.47
7.75
6.53
6.21
6.88
8.29
9.92
11.18
11.61
11.06
9.79
8.39
7.49
7.58
8.67
10.31
11.67
11.84
10.15
6.47
1.34
-3.95
-7.63
-7.79
-2.97
7.26
21.90
38.65
54.62
67.37
75.86
80.66
83.56
86.45
90.40
95.03
98.75
99.41
95.08
84.71
68.39
47.33
23.69
0.19
-20.41
-35.90
-45.27
-48.93
-48.48
-46.09
-43.73
-42.64
-43.11
-44.71
-46.66
-48.22
-48.86
-48.30
-46.42
-43.32
-39.29
-34.86
-30.65
-27.23
-24.90
-23.51
-22.57
-21.34
-19.26
-16.06
-11.86
-7.10
-2.38
1.77
5.03
7.39
9.13
10.70
12.55
14.83
17.30
19.34
20.26
19.52
16.93
12.76
7.50
1.74
-4.02
-9.42
-14.21
-18.15
-21.00
-22.50
-22.47
-20.85
-17.86
-13.92
-9.63
-5.61
-2.29
0.20
1.93
3.04
3.57
3.39
2.26
0.07
-3.03
-6.67
-10.36
-13.69
-16.43
-18.51
-19.93
-20.61
-20.41
-19.12
-16.60
-12.88
-8.28
-3.36
1.11
4.35
5.78
5.26
3.17
0.36
-2.13
-3.38
-2.95
-0.99
1.77
4.38
6.07
6.61
6.43
6.28
6.76
7.86
8.86
8.76
7.10
4.45
2.36
2.85
7.69
17.97
34.01
55.32
80.21
105.30
125.38
134.32
127.27
102.95
65.01
21.16
-19.57
-50.10
-67.53
-73.14
-70.61
-63.73
-55.05
-45.82
-36.89
-29.51
-25.22
-25.20
-29.45
-36.61
-44.48
-51.09
-55.42
-57.62
-58.66
-59.64
-61.31
-63.83
-66.94
-70.21
-73.21
-75.47
-76.37
-75.00
-70.24
-61.16
-47.34
-29.28
-8.29
13.77
35.05
54.20
70.56
84.03
94.77
102.93
108.55
111.67
112.50
111.53
109.40
106.78
104.15
101.74
99.58
97.58
95.59
93.52
91.36
89.16
87.04
84.94
82.47
78.82
73.04
64.51
53.47
41.23
29.80
21.19
16.71
16.52
19.85
25.41
31.81
37.71
41.73
42.38
38.42
29.33
15.87
0.12
-15.18
-27.63
-36.06
-40.80
-43.22
-44.66
-45.65
-45.67
-43.71
-39.30
-33.31
-28.04
-26.48
-31.04
-42.33
-58.58
-76.02
-90.11
-97.23
-96.02
-87.90
-76.42
-66.03
-60.40
-61.08
-66.92
-74.29
-78.16
-73.70
-58.05
-31.62
1.49
34.33
59.01
69.07
61.43
37.20
1.07
-40.40
-80.76
-115.15
-140.86
-157.04
-163.81
-161.54
-150.49
-130.93
-103.70
-70.71
-35.05
-0.48
29.40
51.97
66.17
72.41
71.99
66.54
57.58
46.53
34.84
24.10
15.88
11.39
10.92
13.59
17.60
20.79
21.63
19.86
16.63
14.00
13.88
17.01
22.45
27.90
30.70
29.17
23.36
15.10
7.35
2.67
2.16
4.98
8.64
9.96
6.28
-3.47
-18.27
-34.92
-48.55
-53.60
-45.42
-22.19
13.57
54.64
90.70
111.59
111.12
89.59
53.72
13.90
-19.90
-41.69
-50.70
-50.13
-44.50
-37.21
-29.68
-21.92
-14.00
-7.05
-2.89
-3.02
-7.39
-14.06
-19.85
-21.74
-18.26
-10.04
0.61
10.88
18.73
23.61
26.36
28.42
30.87
33.78
36.26
37.02
35.13
30.53
24.12
17.33
11.54
7.58
5.50
4.67
4.15
3.12
1.21
-1.49
-4.48
-7.14
-9.00
-9.89
-9.86
-9.14
-7.96
-6.47
-4.78
-3.01
-1.34
-0.01
0.67
0.46
-0.77
-2.98
-5.94
-9.27
-12.49
-15.22
-17.29
-18.80
-20.12
-21.74
-24.12
-27.49
-31.77
-36.50
-40.91
-44.04
-44.97
-43.05
-38.08
-30.35
-20.71
-10.26
-0.24
8.30
14.63
18.46
19.94
19.57
18.05
16.11
14.31
12.98
12.18
11.87
11.90
12.15
12.46
12.66
12.62
12.32
11.91
11.75
12.25
13.64
15.85
18.40
20.63
21.94
22.10
21.30
20.04
18.94
18.44
18.64
19.32
20.08
20.50
20.29
19.41
17.97
16.13
13.97
11.42
8.34
4.66
0.49
-3.76
-7.53
-10.30
-11.85
-12.33
-12.12
-11.69
-11.36
-11.23
-11.26
-11.31
-11.31
-11.31
-11.41
-11.77
-12.59
-14.09
-16.45
-19.66
-23.47
-27.28
-30.31
-31.71
-30.75
-26.97
-20.20
-10.69
0.81
13.04
24.34
33.01
37.81
38.33
35.15
29.51
22.83
16.24
10.45
5.90
3.01
2.16
3.55
6.90
11.25
15.31
17.90
18.44
17.19
15.06
13.16
12.32
12.76
14.13
15.68
16.61
16.27
14.39
11.03
6.61
1.70
-3.04
-7.03
-9.85
-11.26
-11.24
-10.01
-7.99
-5.70
-3.66
-2.23
-1.51
-1.46
-1.93
-2.82
-4.10
-5.76
-7.74
-9.89
-11.94
-13.65
-14.89
-15.67
-16.21
-16.77
-17.68
-19.14
-21.26
-23.98
-26.97
-29.69
-31.39
-31.33
-29.00
-24.32
-17.75
-10.22
-2.86
3.32
7.68
10.08
10.75
10.15
8.74
6.85
4.69
2.33
-0.09
-2.37
-4.21
-5.28
-5.28
-4.02
-1.45
2.34
7.08
12.34
17.46
21.63
23.99
23.92
21.27
16.50
10.59
4.75
0.04
-2.89
-3.98
-3.56
-2.27
-0.69
0.71
1.68
2.22
2.54
2.95
3.78
5.22
7.19
9.30
10.97
11.60
10.81
8.52
4.92
0.36
-4.83
-10.37
-16.04
-21.63
-26.88
-31.45
-34.94
-36.93
-37.07
-35.10
-30.99
-24.98
-17.62
-9.64
-1.88
4.94
10.34
14.13
16.36
17.24
17.02
15.97
14.29
12.20
9.96
7.85
6.13
5.01
4.55
4.70
5.30
6.14
7.04
7.86
8.55
9.06
9.37
9.45
9.24
8.73
7.92
6.93
5.88
4.87
3.91
2.90
1.68
0.08
-1.93
-4.23
-6.57
-8.68
-10.32
-11.40
-11.95
-12.10
-12.04
-11.94
-11.95
-12.11
-12.42
-12.88
-13.50
-14.37
-15.62
-17.34
-19.57
-22.19
-24.91
-27.22
-28.56
-28.34
-26.22
-22.18
-16.55
-9.99
-3.24
3.07
8.52
12.92
16.23
18.42
19.48
19.41
18.33
16.49
14.23
11.96
10.05
8.76
8.18
8.27
8.85
9.67
10.50
11.13
11.45
11.36
10.82
9.81
8.40
6.74
5.08
3.63
2.51
1.67
0.95
0.15
-0.77
-1.76
-2.68
-3.42
-3.99
-4.52
-5.16
-5.97
-6.92
-7.91
-8.87
-9.82
-10.87
-12.18
-13.90
-16.09
-18.77
-21.83
-25.08
-28.13
-30.44
-31.34
-30.24
-26.80
-21.10
-13.71
-5.53
2.39
9.15
14.13
17.14
18.28
17.92
16.54
14.59
12.48
10.51
8.90
7.83
7.47
7.89
9.07
10.81
12.81
14.67
16.01
16.64
16.51
15.74
14.55
13.17
11.79
10.52
9.40
8.38
7.35
6.08
4.27
1.70
-1.65
-5.49
-9.22
-12.12
-13.63
-13.59
-12.34
-10.61
-9.20
-8.66
-9.18
-10.49
-12.13
-13.69
-14.93
-15.91
-16.88
-18.18
-20.04
-22.48
-25.19
-27.60
-28.91
-28.39
-25.59
-20.53
-13.76
-6.21
1.05
7.15
11.60
14.32
15.59
15.83
15.52
15.02
14.65
14.66
15.23
16.40
18.11
20.16
22.27
24.25
25.98
27.44
28.65
29.61
30.23
30.40
30.00
28.99
27.42
25.43
23.19
20.81
18.43
16.09
13.86
11.81
9.99
8.41
7.10
6.03
5.12
4.26
3.28
2.05
0.46
-1.46
-3.55
-5.61
-7.47
-9.11
-10.62
-12.18
-14.02
-16.25
-18.93
-22.00
-25.28
-28.42
-30.84
-31.86
-30.78
-27.19
-21.20
-13.46
-5.05
2.84
9.21
13.52
15.74
16.26
15.70
14.65
13.59
12.77
12.28
12.11
12.18
12.38
12.59
12.71
12.63
12.32
11.85
11.36
11.03
10.99
11.24
11.65
11.98
12.04
11.69
10.96
9.92
8.66
7.20
5.49
3.38
0.78
-2.35
-5.93
-9.70
-13.30
-16.30
-18.38
-19.38
-19.43
-18.91
-18.32
-18.20
-18.92
-20.63
-23.27
-26.51
-29.84
-32.54
-33.84
-33.06
-29.85
-24.34
-17.17
-9.31
-1.79
4.59
9.42
12.68
14.64
15.70
16.26
16.63
17.00
17.46
17.99
18.52
18.97
19.22
19.21
18.93
18.38
17.58
16.58
15.39
14.00
12.37
10.46
8.23
5.74
3.09
0.45
-2.01
-4.17
-5.98
-7.51
-8.91
-10.32
-11.86
-13.53
-15.23
-16.79
-18.10
-19.14
-20.07
-21.18
-22.80
-25.22
-28.53
-32.55
-36.74
-40.23
-42.04
-41.29
-37.57
-31.05
-22.55
-13.23
-4.31
3.39
9.48
14.11
17.61
20.33
22.47
24.09
25.20
25.88
26.31
26.69
27.17
27.74
28.29
28.66
28.77
28.64
28.34
27.93
27.38
26.57
25.35
23.63
21.47
19.03
16.57
14.36
12.60
11.34
10.47
9.73
8.78
7.32
5.27
2.73
-0.03
-2.71
-5.18
-7.49
-9.89
-12.68
-16.01
-19.78
-23.65
-27.15
-29.90
-31.81
-33.07
-34.16
-35.66
-38.04
-41.57
-46.10
-51.08
-55.58
-58.43
-58.52
-55.15
-48.30
-38.72
-27.73
-16.82
-7.16
0.70
6.86
11.87
16.31
20.56
24.61
28.26
31.28
33.64
35.50
37.12
38.68
40.14
41.31
41.92
41.85
41.20
40.24
39.34
38.75
38.51
38.53
38.58
38.46
38.02
37.23
36.11
34.75
33.16
31.34
29.23
26.77
23.98
20.95
17.90
15.01
12.41
10.09
7.91
5.64
3.05
0.06
-3.27
-6.68
-9.93
-12.83
-15.43
-17.92
-20.52
-23.35
-26.31
-29.18
-31.70
-33.79
-35.56
-37.24
-39.04
-41.01
-43.05
-45.03
-46.79
-48.12
-48.66
-47.84
-44.99
-39.70
-32.04
-22.80
-13.28
-4.88
1.38
5.18
6.90
7.30
7.16
6.99
6.98
7.10
7.32
7.74
8.52
9.80
11.58
13.65
15.73
17.52
18.85
19.74
20.37
20.88
21.35
21.70
21.71
21.13
19.84
17.88
15.54
13.14
10.95
9.02
7.20
5.24
3.02
0.59
-1.83
-3.93
-5.57
-6.79
-7.78
-8.78
-9.92
-11.20
-12.49
-13.65
-14.58
-15.31
-15.95
-16.70
-17.75
-19.25
-21.26
-23.72
-26.50
-29.36
-32.06
-34.43
-36.40
-38.10
-39.77
-41.78
-44.37
-47.48
-50.64
-52.95
-53.34
-50.88
-45.16
-36.44
-25.60
-13.92
-2.64
7.30
15.46
21.87
26.88
30.93
34.35
37.29
39.76
41.69
43.04
43.83
44.16
44.13
43.86
43.44
42.99
42.60
42.33
42.19
42.05
41.68
40.83
39.33
37.18
34.52
31.48
28.08
24.17
19.56
14.19
8.34
2.58
-2.37
-6.00
-8.27
-9.66
-10.91
-12.63
-14.95
-17.42
-19.24
-19.71
-18.73
-17.01
-15.92
-16.96
-21.06
-28.11
-36.85
-45.42
-52.04
-55.80
-56.94
-56.72
-57.05
-59.84
-66.62
-78.03
-93.18
-109.00
-120.40
-121.46
-107.69
-78.29
-37.12
8.17
48.91
78.35
93.81
96.93
92.34
85.54
81.09
81.65
87.93
99.18
113.95
130.77
148.49
166.42
183.90
199.93
213.05
221.69
224.89
222.96
217.18
209.03
199.26
187.34
171.95
152.07
127.89
101.10
74.30
50.00
29.66
13.43
0.40
-10.77
-21.16
-31.27
-40.97
-49.77
-57.06
-62.41
-65.72
-67.23
-67.50
-67.27
-67.24
-67.82
-69.04
-70.56
-71.82
-72.35
-72.00
-71.03
-70.01
-69.57
-70.08
-71.40
-72.89
-73.65
-72.89
-70.29
-66.23
-61.69
-57.91
-55.94
-56.18
-58.27
-61.25
-63.91
-65.29
-65.03
-63.66
-62.64
-64.30
-71.35
-86.08
-109.16
-138.66
-169.70
-195.46
-209.24
-206.81
-188.04
-156.81
-119.51
-82.57
-50.56
-25.48
-7.32
4.66
11.04
11.91
7.48
-1.33
-12.56
-23.59
-31.94
-35.97
-35.29
-30.52
-22.93
-13.80
-4.21
5.10
13.58
20.71
26.02
29.11
29.76
27.96
23.89
17.89
10.47
2.32
-5.73
-12.77
-18.18
-21.74
-23.69
-24.56
-24.91
-25.12
-25.25
-25.21
-24.82
-23.89
-22.13
-19.07
-14.08
-6.64
3.36
15.34
28.11
40.24
50.49
58.23
63.47
66.60
68.04
68.05
66.64
63.81
59.74
54.78
49.35
43.76
38.18
32.71
27.54
23.00
19.36
16.77
15.07
13.83
12.58
10.89
8.40
4.71
-0.61
-7.98
-17.45
-28.48
-39.83
-49.82
-56.80
-59.61
-57.79
-51.63
-41.94
-29.83
-16.57
-3.42
8.50
18.36
25.75
30.74
33.70
35.26
36.07
36.66
37.41
38.47
39.76
41.02
41.91
42.23
42.00
41.54
41.33
41.86
43.43
46.11
49.69
53.78
57.77
60.98
62.72
62.42
59.84
55.17
48.95
41.99
35.17
29.21
24.62
21.65
20.23
20.01
20.47
20.99
21.07
20.36
18.69
16.01
12.35
7.75
2.36
-3.54
-9.59
-15.38
-20.61
-25.05
-28.59
-31.18
-32.84
-33.68
-33.89
-33.74
-33.50
-33.43
-33.71
-34.39
-35.35
-36.37
-37.22
-37.78
-38.21
-38.92
-40.34
-42.60
-45.33
-47.63
-48.40
-46.82
-42.70
-36.62
-29.56
-22.55
-16.24
-10.83
-6.23
-2.24
1.12
3.74
5.45
6.31
6.61
6.80
7.30
8.26
9.61
11.13
12.64
14.04
15.33
16.42
17.14
17.33
16.97
16.32
15.90
16.17
17.34
19.22
21.35
23.18
24.33
24.73
24.45
23.68
22.50
20.95
19.04
16.86
14.60
12.48
10.63
9.07
7.71
6.39
5.01
3.61
2.33
1.37
0.87
0.91
1.43
2.22
2.98
3.30
2.78
1.14
-1.63
-5.32
-9.51
-13.74
-17.70
-21.34
-24.76
-28.14
-31.63
-35.19
-38.62
-41.55
-43.47
-43.85
-42.19
-38.27
-32.17
-24.36
-15.51
-6.37
2.53
10.94
18.92
26.66
34.31
41.72
48.36
53.52
56.50
57.01
55.34
52.29
48.84
45.71
43.10
40.66
37.82
34.12
29.52
24.34
19.09
14.18
9.76
5.79
2.21
-0.98
-3.61
-5.56
-6.75
-7.37
-7.73
-8.12
-8.69
-9.28
-9.47
-8.76
-6.78
-3.51
0.60
4.79
8.23
10.32
10.86
10.03
8.21
5.78
2.95
-0.15
-3.47
-6.88
-10.20
-13.21
-15.70
-17.55
-18.68
-19.06
-18.79
-18.13
-17.48
-17.19
-17.37
-17.72
-17.55
-16.04
-12.59
-7.17
-0.31
7.11
14.16
20.20
24.95
28.42
30.71
31.90
32.02
31.09
29.27
26.85
24.27
22.02
20.48
19.83
20.02
20.76
21.66
22.37
22.70
22.76
22.86
23.39
24.62
26.56
28.94
31.25
32.95
33.61
33.00
31.13
28.07
24.01
19.10
13.56
7.63
1.63
-4.10
-9.23
-13.52
-16.92
-19.46
-21.28
-22.57
-23.54
-24.51
-25.83
-27.79
-30.45
-33.59
-36.73
-39.32
-41.09
-42.15
-42.99
-44.30
-46.60
-50.03
-54.18
-58.22
-61.18
-62.28
-61.22
-58.31
-54.29
-50.06
-46.36
-43.53
-41.61
-40.50
-40.17
-40.61
-41.79
-43.40
-44.87
-45.51
-44.81
-42.63
-39.28
-35.29
-31.17
-27.23
-23.50
-19.79
-15.77
-11.04
-5.28
1.64
9.49
17.62
25.16
31.22
35.31
37.47
38.22
38.31
38.33
38.51
38.66
38.41
37.41
35.58
33.00
29.88
26.39
22.55
18.35
13.77
8.86
3.71
-1.61
-7.10
-12.75
-18.50
-24.19
-29.52
-34.25
-38.29
-41.82
-45.27
-49.13
-53.73
-59.00
-64.36
-68.83
-71.24
-70.60
-66.45
-59.02
-49.16
-38.08
-27.02
-16.99
-8.56
-1.90
3.13
6.85
9.71
12.13
14.46
16.90
19.45
21.98
24.30
26.30
27.98
29.43
30.75
32.00
33.11
33.98
34.52
34.68
34.41
33.71
32.57
30.98
29.04
26.89
24.80
22.97
21.54
20.49
19.69
18.95
18.15
17.26
16.28
15.23
14.04
12.62
10.85
8.78
6.60
4.61
3.07
2.03
1.23
0.21
-1.54
-4.29
-7.93
-12.02
-15.99
-19.39
-22.06
-24.18
-26.16
-28.51
-31.62
-35.64
-40.38
-45.28
-49.44
-51.81
-51.42
-47.69
-40.63
-30.91
-19.70
-8.40
1.75
9.95
15.92
19.87
22.25
23.55
24.16
24.38
24.39
24.39
24.57
25.11
26.04
27.26
28.52
29.56
30.16
30.33
30.18
29.89
29.54
29.04
28.20
26.76
24.64
21.96
19.07
16.41
14.32
12.93
12.10
11.61
11.25
10.93
10.70
10.62
10.66
10.67
10.40
9.67
8.46
6.88
5.22
3.71
2.44
1.24
-0.23
-2.34
-5.33
-9.16
-13.55
-18.07
-22.29
-26.01
-29.26
-32.29
-35.47
-39.17
-43.66
-49.02
-54.99
-60.84
-65.40
-67.29
-65.27
-58.80
-48.32
-35.31
-21.81
-9.77
-0.43
6.03
10.36
13.75
17.26
21.44
26.26
31.24
35.82
39.58
42.40
44.33
45.57
46.29
46.56
46.44
46.02
45.41
44.80
44.30
43.87
43.31
42.33
40.69
38.37
35.59
32.77
30.29
28.41
27.16
26.39
25.94
25.65
25.46
25.33
25.16
24.86
24.26
23.21
21.61
19.47
16.86
13.92
10.81
7.66
4.57
1.55
-1.36
-4.08
-6.46
-8.34
-9.67
-10.62
-11.58
-13.01
-15.21
-18.18
-21.62
-25.05
-28.11
-30.73
-33.19
-35.98
-39.65
-44.52
-50.61
-57.47
-64.21
-69.55
-72.07
-70.56
-64.51
-54.43
-41.80
-28.69
-17.13
-8.45
-3.00
-0.22
0.94
1.54
2.28
3.35
4.58
5.62
6.23
6.49
6.90
8.28
11.46
16.90
24.35
32.76
40.57
46.21
48.59
47.42
43.10
36.52
28.68
20.54
12.94
6.66
2.47
0.99
2.55
6.95
13.43
20.73
27.30
31.72
33.10
31.25
26.77
20.75
14.38
8.54
3.63
-0.36
-3.64
-6.22
-7.86
-8.11
-6.65
-3.60
0.29
3.70
5.23
3.78
-1.00
-8.61
-17.91
-27.48
-36.05
-42.85
-47.68
-50.82
-52.82
-54.25
-55.47
-56.44
-56.72
-55.62
-52.52
-47.14
-39.73
-31.06
-22.14
-13.96
-7.15
-1.91
1.97
5.04
8.00
11.48
15.89
21.27
27.28
33.30
38.64
42.80
45.54
46.92
47.20
46.69
45.75
44.68
43.79
43.32
43.42
44.05
44.95
45.73
45.89
45.05
43.10
40.23
36.89
33.64
30.84
28.61
26.71
24.79
22.52
19.78
16.72
13.62
10.79
8.40
6.49
4.95
3.57
2.15
0.50
-1.45
-3.68
-6.11
-8.60
-11.05
-13.42
-15.69
-17.75
-19.42
-20.44
-20.64
-20.04
-18.92
-17.81
-17.29
-17.84
-19.71
-22.98
-27.64
-33.51
-40.15
-46.66
-51.76
-54.05
-52.51
-46.91
-37.98
-27.13
-15.95
-5.76
2.76
9.48
14.61
18.50
21.39
23.47
24.90
25.86
26.56
27.17
27.80
28.55
29.43
30.43
31.48
32.52
33.51
34.37
35.02
35.34
35.25
34.64
33.50
31.88
29.90
27.72
25.47
23.27
21.21
19.37
17.83
16.67
15.92
15.52
15.35
15.25
15.13
14.89
14.47
13.71
12.40
10.32
7.41
3.89
0.20
-3.08
-5.50
-6.92
-7.56
-7.94
-8.66
-10.22
-12.79
-16.22
-20.14
-24.07
-27.66
-30.77
-33.51
-36.13
-38.91
-42.05
-45.63
-49.50
-53.30
-56.34
-57.69
-56.38
-51.70
-43.60
-32.80
-20.69
-8.96
0.96
8.27
12.93
15.57
17.05
18.19
19.51
21.13
22.98
24.90
26.75
28.51
30.14
31.57
32.58
32.92
32.42
31.09
29.15
26.93
24.73
22.67
20.71
18.70
16.49
14.14
11.84
9.88
8.50
7.80
7.71
8.05
8.66
9.47
10.45
11.56
12.71
13.69
14.34
14.60
14.56
14.37
14.17
13.96
13.64
13.08
12.24
11.17
9.99
8.81
7.58
6.21
4.53
2.48
0.10
-2.47
-5.06
-7.55
-10.00
-12.62
-15.73
-19.63
-24.43
-29.91
-35.48
-40.28
-43.32
-43.82
-41.38
-36.15
-28.78
-20.26
-11.68
-3.96
2.28
6.79
9.61
10.98
11.22
10.71
9.77
8.77
7.96
7.57
7.67
8.23
9.11
10.11
11.05
11.85
12.50
13.02
13.45
13.77
13.95
13.93
13.70
13.29
12.73
12.08
11.37
10.63
9.88
9.15
8.46
7.83
7.23
6.58
5.76
4.66
3.20
1.40
-0.66
-2.83
-4.97
-6.99
-8.81
-10.38
-11.64
-12.51
-12.98
-13.12
-13.04
-12.93
-12.85
-12.79
-12.63
-12.19
-11.37
-10.24
-9.00
-7.95
-7.38
-7.42
-7.95
-8.64
-8.98
-8.48
-6.78
-3.80
0.25
4.90
9.61
13.87
17.32
19.77
21.23
21.78
21.55
20.62
18.99
16.60
13.39
9.39
4.76
-0.24
-5.26
-10.02
-14.31
-18.05
-21.23
-23.83
-25.88
-27.39
-28.44
-29.19
-29.80
-30.41
-31.07
-31.70
-32.16
-32.26
-31.89
-31.02
-29.79
-28.45
-27.28
-26.50
-26.14
-26.03
-25.88
-25.43
-24.58
-23.45
-22.34
-21.51
-21.14
-21.19
-21.52
-21.93
-22.32
-22.68
-23.10
-23.69
-24.57
-25.84
-27.49
-29.40
-31.31
-32.76
-33.12
-31.74
-28.18
-22.33
-14.60
-5.82
2.91
10.58
16.53
20.57
22.92
24.04
24.36
24.18
23.61
22.73
21.67
20.61
19.84
19.58
19.88
20.66
21.66
22.57
23.12
23.14
22.59
21.55
20.12
18.42
16.55
14.58
12.52
10.35
8.05
5.57
2.90
0.10
-2.72
-5.39
-7.78
-9.83
-11.61
-13.24
-14.87
-16.60
-18.47
-20.45
-22.46
-24.47
-26.48
-28.60
-31.03
-34.02
-37.81
-42.44
-47.64
-52.74
-56.76
-58.61
-57.38
-52.69
-44.89
-34.93
-24.21
-14.17
-5.87
0.20
4.17
6.66
8.41
10.06
11.95
14.13
16.49
18.91
21.32
23.75
26.20
28.66
30.94
32.86
34.24
35.03
35.27
35.08
34.57
33.76
32.62
31.10
29.20
27.03
24.82
22.88
21.47
20.73
20.56
20.66
20.61
19.94
18.37
15.83
12.51
8.77
5.03
1.54
-1.62
-4.58
-7.52
-10.62
-13.88
-17.19
-20.38
-23.30
-25.96
-28.54
-31.31
-34.61
-38.67
-43.54
-48.97
-54.37
-58.81
-61.12
-60.23
-55.48
-46.91
-35.43
-22.62
-10.31
-0.01
7.52
12.37
15.35
17.50
19.65
22.20
25.11
28.09
30.84
33.21
35.14
36.64
37.67
38.13
37.99
37.31
36.24
34.98
33.60
32.07
30.29
28.21
25.89
23.55
21.44
19.76
18.52
17.63
16.93
16.31
15.71
15.14
14.58
13.97
13.24
12.33
11.19
9.87
8.41
6.85
5.24
3.60
1.94
0.24
-1.54
-3.51
-5.78
-8.45
-11.50
-14.76
-17.95
-20.79
-23.11
-24.98
-26.67
-28.62
-31.21
-34.66
-38.87
-43.35
-47.30
-49.68
-49.54
-46.23
-39.72
-30.64
-20.16
-9.67
-0.36
7.07
12.49
16.18
18.56
20.01
20.77
21.03
20.97
20.89
21.08
21.75
22.94
24.53
26.23
27.74
28.82
29.37
29.44
29.22
28.94
28.74
28.55
28.15
27.25
25.64
23.31
20.50
17.58
14.95
12.88
11.40
10.33
9.35
8.14
6.50
4.36
1.91
-0.61
-2.93
-4.93
-6.66
-8.32
-10.12
-12.24
-14.73
-17.52
-20.50
-23.51
-26.40
-29.05
-31.41
-33.55
-35.71
-38.26
-41.52
-45.63
-50.30
-54.77
-57.86
-58.34
-55.30
-48.50
-38.52
-26.65
-14.48
-3.48
5.39
11.84
16.17
19.04
21.18
23.14
25.21
27.38
29.51
31.37
32.86
33.95
34.72
35.23
35.51
35.56
35.37
35.01
34.55
34.07
33.56
32.89
31.85
30.26
28.08
25.51
22.85
20.44
18.47
16.90
15.51
14.04
12.37
10.57
8.88
7.53
6.59
5.93
5.25
4.23
2.65
0.46
-2.19
-5.08
-7.95
-10.61
-12.96
-15.01
-16.90
-18.86
-21.08
-23.60
-26.30
-28.94
-31.29
-33.29
-35.12
-37.15
-39.83
-43.53
-48.31
-53.77
-59.04
-62.82
-63.76
-60.87
-53.89
-43.50
-31.16
-18.68
-7.61
1.16
7.54
12.08
15.57
18.71
21.87
25.13
28.34
31.27
33.75
35.64
36.89
37.54
37.64
37.31
36.72
36.05
35.45
34.99
34.65
34.32
33.84
33.02
31.74
29.93
27.64
25.07
22.53
20.32
18.65
17.49
16.62
15.70
14.44
12.76
10.81
8.85
7.15
5.81
4.68
3.49
1.95
-0.05
-2.42
-4.89
-7.15
-8.99
-10.39
-11.55
-12.76
-14.27
-16.22
-18.52
-20.97
-23.36
-25.55
-27.56
-29.51
-31.59
-33.97
-36.79
-40.16
-44.07
-48.33
-52.37
-55.28
-55.93
-53.35
-47.11
-37.67
-26.26
-14.56
-4.10
4.17
10.11
14.17
17.03
19.19
20.86
21.95
22.36
22.13
21.54
21.02
20.89
21.27
22.06
23.00
23.86
24.56
25.14
25.71
26.31
26.77
26.83
26.18
24.68
22.49
19.99
17.68
15.90
14.72
13.91
13.11
12.00
10.48
8.72
7.00
5.64
4.75
4.26
3.94
3.49
2.73
1.57
0.06
-1.67
-3.49
-5.31
-7.10
-8.89
-10.78
-12.90
-15.37
-18.22
-21.42
-24.78
-28.06
-30.99
-33.39
-35.27
-36.89
-38.71
-41.28
-44.96
-49.66
-54.68
-58.77
-60.44
-58.46
-52.37
-42.66
-30.71
-18.28
-6.97
2.22
9.08
14.03
17.76
20.86
23.64
26.09
28.07
29.43
30.15
30.39
30.38
30.31
30.27
30.25
30.15
29.91
29.50
28.99
28.44
27.90
27.33
26.58
25.53
24.11
22.38
20.57
18.91
17.63
16.77
16.18
15.61
14.77
13.47
11.72
9.71
7.73
6.02
4.68
3.64
2.71
1.62
0.17
-1.72
-3.95
-6.28
-8.41
-10.11
-11.33
-12.24
-13.15
-14.42
-16.25
-18.60
-21.21
-23.72
-25.85
-27.53
-28.91
-30.30
-32.09
-34.64
-38.23
-42.86
-48.21
-53.42
-57.26
-58.31
-55.49
-48.47
-37.92
-25.38
-12.80
-1.89
6.37
11.93
15.43
17.82
19.83
21.81
23.72
25.40
26.76
27.83
28.77
29.68
30.55
31.24
31.65
31.76
31.70
31.67
31.79
32.05
32.29
32.26
31.75
30.65
28.98
26.87
24.52
22.11
19.81
17.75
16.00
14.56
13.37
12.28
11.10
9.66
7.91
5.92
3.93
2.17
0.76
-0.32
-1.29
-2.41
-3.90
-5.82
-8.03
-10.29
-12.37
-14.17
-15.73
-17.25
-18.98
-21.08
-23.56
-26.27
-28.97
-31.44
-33.57
-35.41
-37.17
-39.09
-41.40
-44.31
-47.93
-52.22
-56.75
-60.69
-62.83
-61.88
-57.00
-48.19
-36.44
-23.47
-11.15
-0.93
6.57
11.56
14.78
17.01
18.85
20.56
22.16
23.65
25.04
26.40
27.80
29.20
30.47
31.48
32.11
32.36
32.31
32.13
31.96
31.87
31.82
31.68
31.24
30.28
28.68
26.48
23.89
21.25
18.90
17.08
15.80
14.89
14.05
13.03
11.72
10.19
8.67
7.41
6.53
5.95
5.43
4.69
3.46
1.66
-0.65
-3.25
-5.86
-8.27
-10.36
-12.20
-13.94
-15.79
-17.85
-20.07
-22.25
-24.14
-25.59
-26.62
-27.43
-28.39
-29.88
-32.21
-35.49
-39.49
-43.63
-46.99
-48.52
-47.30
-42.89
-35.50
-25.97
-15.58
-5.62
2.91
9.54
14.25
17.36
19.26
20.33
20.82
20.95
20.92
20.96
21.24
21.86
22.78
23.86
24.93
25.85
26.55
27.05
27.43
27.72
27.88
27.81
27.35
26.37
24.86
22.92
20.78
18.70
16.91
15.50
14.44
13.57
12.71
11.71
10.53
9.20
7.83
6.57
5.50
4.64
3.90
3.11
2.04
0.54
-1.42
-3.73
-6.14
-8.46
-10.58
-12.55
-14.57
-16.86
-19.54
-22.56
-25.72
-28.70
-31.24
-33.22
-34.68
-35.89
-37.21
-39.06
-41.71
-45.18
-49.12
-52.77
-55.11
-55.07
-51.90
-45.43
-36.18
-25.26
-14.05
-3.86
4.41
10.44
14.45
16.97
18.64
19.92
21.09
22.22
23.33
24.40
25.44
26.48
27.47
28.33
28.92
29.17
29.05
28.68
28.19
27.71
27.28
26.80
26.11
25.08
23.66
21.94
20.11
18.35
16.76
15.34
13.99
12.62
11.16
9.63
8.11
6.72
5.56
4.68
4.06
3.63
3.21
2.65
1.82
0.69
-0.65
-2.08
-3.48
-4.81
-6.12
-7.53
-9.19
-11.21
-13.64
-16.40
-19.36
-22.24
-24.82
-26.91
-28.51
-29.83
-31.27
-33.30
-36.22
-40.05
-44.30
-48.09
-50.24
-49.65
-45.63
-38.17
-28.04
-16.58
-5.41
4.10
11.16
15.69
18.23
19.54
20.31
20.93
21.45
21.76
21.82
21.72
21.68
21.87
22.34
22.94
23.48
23.86
24.09
24.32
24.66
25.10
25.45
25.39
24.69
23.27
21.26
18.95
16.71
14.81
13.38
12.38
11.65
11.02
10.32
9.45
8.40
7.23
5.99
4.71
3.38
1.89
0.20
-1.69
-3.70
-5.68
-7.49
-9.10
-10.59
-12.09
-13.71
-15.50
-17.44
-19.47
-21.55
-23.62
-25.63
-27.52
-29.26
-30.88
-32.56
-34.58
-37.24
-40.62
-44.44
-47.98
-50.16
-49.86
-46.34
-39.50
-30.02
-19.17
-8.46
0.85
8.02
12.92
15.94
17.66
18.65
19.30
19.79
20.14
20.34
20.40
20.42
20.55
20.94
21.62
22.52
23.44
24.19
24.61
24.69
24.47
23.98
23.15
21.85
19.97
17.53
14.78
12.12
9.97
8.58
7.94
7.85
8.05
8.33
8.61
8.96
9.43
10.05
10.67
11.10
11.09
10.44
9.06
6.98
4.33
1.34
-1.76
-4.72
-7.35
-9.63
-11.64
-13.60
-15.75
-18.23
-21.03
-23.95
-26.75
-29.24
-31.47
-33.73
-36.46
-40.06
-44.68
-50.08
-55.52
-59.90
-61.97
-60.67
-55.45
-46.57
-35.06
-22.52
-10.63
-0.68
6.73
11.74
14.97
17.18
18.98
20.71
22.49
24.27
25.99
27.59
29.01
30.21
31.13
31.72
32.01
32.07
32.02
31.99
32.05
32.20
32.32
32.17
31.51
30.18
28.18
25.72
23.16
20.84
18.99
17.60
16.45
15.25
13.78
11.99
10.02
8.09
6.43
5.14
4.17
3.34
2.44
1.34
-0.05
-1.66
-3.41
-5.14
-6.74
-8.13
-9.33
-10.45
-11.70
-13.28
-15.29
-17.69
-20.29
-22.78
-24.92
-26.64
-28.11
-29.63
-31.60
-34.27
-37.67
-41.49
-45.10
-47.62
-48.08
-45.71
-40.24
-32.02
-22.01
-11.51
-1.81
6.15
11.93
15.62
17.62
18.56
19.00
19.35
19.83
20.47
21.20
21.99
22.87
23.91
25.17
26.59
27.99
29.16
29.92
30.21
30.13
29.79
29.22
28.39
27.16
25.46
23.31
20.91
18.52
16.42
14.73
13.37
12.09
10.61
8.78
6.68
4.57
2.78
1.55
0.90
0.64
0.49
0.17
-0.47
-1.45
-2.73
-4.23
-5.84
-7.47
-9.02
-10.50
-11.97
-13.64
-15.73
-18.34
-21.37
-24.48
-27.28
-29.46
-31.01
-32.25
-33.73
-35.94
-39.17
-43.26
-47.59
-51.24
-53.14
-52.39
-48.49
-41.53
-32.23
-21.76
-11.42
-2.32
4.91
10.18
13.84
16.45
18.56
20.56
22.59
24.64
26.58
28.29
29.66
30.63
31.17
31.29
31.06
30.60
30.04
29.48
28.94
28.37
27.64
26.67
25.41
23.89
22.16
20.31
18.40
16.50
14.71
13.12
11.79
10.68
9.74
8.86
8.08
7.49
7.20
7.24
7.45
7.59
7.37
6.63
5.43
3.95
2.42
0.94
-0.52
-2.13
-4.05
-6.32
-8.81
-11.25
-13.32
-14.83
-15.83
-16.52
-17.26
-18.35
-19.94
-21.94
-24.10
-26.16
-27.99
-29.60
-31.19
-33.03
-35.42
-38.59
-42.63
-47.37
-52.26
-56.36
-58.43
-57.31
-52.33
-43.65
-32.35
-20.17
-8.96
-0.10
5.86
9.19
10.74
11.52
12.31
13.50
15.11
16.96
18.81
20.50
21.94
23.12
24.06
24.77
25.25
25.53
25.70
25.84
26.06
26.36
26.64
26.66
26.14
24.92
23.05
20.77
18.46
16.40
14.73
13.32
11.96
10.44
8.68
6.75
4.80
2.92
1.15
-0.55
-2.20
-3.78
-5.21
-6.40
-7.32
-8.07
-8.75
-9.49
-10.34
-11.21
-12.01
-12.67
-13.22
-13.85
-14.77
-16.15
-18.04
-20.30
-22.70
-25.06
-27.35
-29.74
-32.53
-36.03
-40.41
-45.52
-50.80
-55.28
-57.70
-56.87
-52.00
-43.13
-31.14
-17.64
-4.48
6.79
15.29
20.98
24.45
26.54
28.02
29.32
30.65
32.01
33.38
34.73
36.02
37.14
37.92
38.21
37.96
37.28
36.34
35.36
34.43
33.52
32.54
31.39
30.07
28.61
27.13
25.73
24.51
23.58
23.08
23.08
23.53
24.24
24.93
25.25
24.99
24.14
22.91
21.65
20.76
20.48
20.79
21.35
21.68
21.27
19.91
17.81
15.50
13.71
12.97
13.39
14.62
15.95
16.72
16.61
15.80
14.84
14.42
15.01
16.69
19.29
22.52
26.14
29.86
33.19
35.32
35.43
33.24
29.44
25.61
23.48
23.92
26.22
28.35
28.13
24.43
17.90
10.39
3.81
-1.20
-5.49
-10.74
-18.14
-27.52
-37.35
-45.61
-50.89
-53.14
-53.50
-53.61
-54.71
-57.08
-60.08
-62.62
-63.73
-62.97
-60.53
-56.97
-52.89
-48.62
-44.13
-39.25
-33.84
-28.04
-22.25
-17.00
-12.71
-9.48
-7.10
-5.15
-3.21
-1.09
1.15
3.19
4.64
5.22
4.93
3.99
2.79
1.74
1.07
0.80
0.72
0.57
0.09
-0.82
-2.07
-3.44
-4.66
-5.48
-5.76
-5.56
-5.09
-4.70
-4.74
-5.47
-6.98
-9.17
-11.81
-14.70
-17.65
-20.58
-23.50
-26.44
-29.42
-32.42
-35.33
-37.88
-39.64
-40.04
-38.55
-34.86
-29.04
-21.65
-13.56
-5.75
0.89
5.82
8.90
10.34
10.57
10.14
9.53
9.11
9.13
9.71
10.93
12.83
15.39
18.49
21.89
25.29
28.41
31.03
33.08
34.55
35.39
35.51
34.71
32.82
29.80
25.84
21.35
16.91
13.10
10.31
8.67
7.96
7.73
7.37
6.39
4.47
1.58
-1.95
-5.66
-8.96
-11.37
-12.56
-12.42
-11.02
-8.60
-5.53
-2.28
0.61
2.65
3.49
3.00
1.34
-1.11
-3.81
-6.24
-8.02
-9.00
-9.26
-9.10
-9.01
-9.61
-11.53
-15.24
-20.84
-27.84
-35.23
-41.56
-45.37
-45.61
-41.90
-34.70
-25.10
-14.53
-4.30
4.56
11.51
16.42
19.39
20.70
20.71
19.80
18.38
16.79
15.34
14.13
13.15
12.30
11.46
10.60
9.78
9.08
8.63
8.52
8.74
9.25
9.90
10.56
11.06
11.35
11.43
11.38
11.36
11.44
11.63
11.81
11.80
11.38
10.41
8.83
6.70
4.22
1.60
-0.94
-3.21
-5.15
-6.76
-8.06
-9.12
-10.00
-10.77
-11.50
-12.28
-13.18
-14.25
-15.59
-17.31
-19.57
-22.55
-26.39
-31.02
-36.10
-40.93
-44.60
-46.15
-44.83
-40.36
-33.05
-23.79
-13.82
-4.41
3.49
9.41
13.32
15.58
16.62
16.88
16.74
16.47
16.26
16.19
16.26
16.34
16.25
15.86
15.13
14.17
13.16
12.32
11.80
11.69
12.00
12.73
13.80
15.07
16.31
17.23
17.53
16.95
15.41
13.01
10.00
6.75
3.58
0.76
-1.61
-3.54
-5.14
-6.56
-7.90
-9.20
-10.43
-11.53
-12.48
-13.38
-14.31
-15.40
-16.67
-18.10
-19.61
-21.18
-22.91
-25.04
-27.89
-31.74
-36.72
-42.61
-48.83
-54.39
-58.09
-58.82
-55.83
-49.12
-39.43
-28.11
-16.77
-6.88
0.54
5.13
7.09
7.11
6.12
5.04
4.61
5.17
6.76
9.12
11.89
14.77
17.58
20.22
22.69
24.98
27.10
29.13
31.13
33.18
35.19
36.93
38.06
38.24
37.28
35.22
32.27
28.76
25.01
21.28
17.74
14.54
11.83
9.77
8.47
7.92
7.90
8.06
7.98
7.35
6.07
4.27
2.17
0.02
-2.07
-4.17
-6.39
-8.86
-11.55
-14.28
-16.83
-19.00
-20.76
-22.23
-23.64
-25.27
-27.35
-30.03
-33.31
-36.99
-40.63
-43.53
-44.85
-43.76
-39.84
-33.21
-24.61
-15.21
-6.23
1.46
7.51
12.05
15.50
18.23
20.49
22.38
23.97
25.39
26.82
28.40
30.11
31.78
33.17
34.12
34.71
35.29
36.27
38.01
40.54
43.48
46.18
47.89
48.07
46.55
43.52
39.48
35.04
30.76
27.07
24.25
22.37
21.31
20.79
20.34
19.42
17.55
14.35
9.66
3.44
-4.17
-12.91
-22.29
-31.56
-39.74
-45.72
-48.47
-47.28
-41.96
-32.87
-20.90
-7.32
6.37
18.62
28.03
33.69
35.36
33.54
29.21
23.37
16.72
9.59
2.22
-4.87
-10.62
-13.70
-13.08
-8.65
-1.32
7.25
15.40
22.16
27.56
32.36
37.51
43.61
50.65
57.97
64.64
69.80
72.97
74.01
73.14
70.65
66.85
61.96
56.22
49.89
43.24
36.42
29.29
21.44
12.48
2.33
-8.43
-18.62
-26.86
-32.08
-34.06
-33.53
-31.92
-30.73
-31.03
-33.20
-36.93
-41.64
-46.78
-52.07
-57.40
-62.76
-67.97
-72.74
-76.72
-79.67
-81.59
-82.68
-83.23
-83.43
-83.28
-82.60
-81.16
-78.82
-75.63
-71.87
-67.97
-64.38
-61.49
-59.56
-58.73
-58.98
-60.14
-61.78
-63.20
-63.46
-61.57
-56.77
-48.78
-37.94
-25.19
-11.82
0.87
11.84
20.51
26.70
30.56
32.35
32.40
31.11
28.96
26.51
24.35
23.00
22.75
23.61
25.33
27.53
29.82
31.92
33.65
34.89
35.52
35.37
34.33
32.38
29.70
26.64
23.54
20.68
18.09
15.55
12.83
9.70
6.21
2.62
-0.73
-3.62
-6.05
-8.30
-10.72
-13.64
-17.19
-21.28
-25.72
-30.32
-34.97
-39.58
-44.13
-48.67
-53.37
-58.58
-64.69
-71.87
-79.79
-87.37
-92.96
-94.80
-91.64
-83.24
-70.52
-55.14
-39.02
-23.73
-10.25
1.05
10.18
17.34
22.82
26.97
30.20
33.00
35.78
38.82
42.18
45.76
49.32
52.64
55.55
57.93
59.76
61.03
61.72
61.73
60.92
59.14
56.30
52.49
48.02
43.36
39.00
35.38
32.60
30.48
28.54
26.25
23.27
19.57
15.47
11.47
8.01
5.24
2.95
0.69
-2.04
-5.54
-9.80
-14.51
-19.23
-23.59
-27.49
-31.07
-34.75
-39.03
-44.37
-50.94
-58.44
-65.89
-71.73
-74.13
-71.60
-63.57
-50.76
-35.04
-18.83
-4.33
7.09
15.15
20.39
23.72
26.01
27.88
29.68
31.67
33.97
36.63
39.51
42.31
44.72
46.47
47.54
48.09
48.40
48.78
49.44
50.37
51.40
52.19
52.39
51.72
50.13
47.87
45.34
42.96
40.98
39.36
37.84
36.09
33.89
31.24
28.29
25.32
22.56
20.14
18.06
16.21
14.43
12.56
10.49
8.20
5.77
3.30
0.90
-1.49
-4.05
-7.11
-10.95
-15.61
-20.90
-26.33
-31.39
-35.73
-39.37
-42.70
-46.33
-50.87
-56.60
-63.29
-70.04
-75.39
-77.62
-75.27
-67.56
-54.89
-38.76
-21.41
-5.21
8.08
17.65
23.67
26.88
28.26
28.58
28.41
28.11
28.00
28.36
29.37
31.06
33.21
35.46
37.41
38.79
39.54
39.75
39.60
39.20
38.57
37.67
36.43
34.87
33.09
31.24
29.42
27.65
25.82
23.84
21.62
19.17
16.62
14.11
11.79
9.72
7.89
6.22
4.63
3.04
1.44
-0.11
-1.53
-2.72
-3.69
-4.54
-5.51
-6.92
-9.02
-11.92
-15.46
-19.29
-22.97
-26.15
-28.76
-31.06
-33.53
-36.78
-41.25
-46.96
-53.35
-59.28
-63.23
-63.74
-59.91
-51.75
-40.35
-27.47
-15.09
-4.74
2.88
7.86
10.78
12.29
12.74
12.17
10.48
7.79
4.56
1.66
0.06
0.48
3.05
7.14
11.57
14.91
15.97
14.19
9.82
3.90
-1.91
-5.57
-5.04
1.16
13.26
29.89
48.17
64.53
75.96
81.12
80.72
77.03
72.71
69.63
68.23
67.87
67.61
67.02
66.57
67.30
70.12
75.16
81.57
87.81
92.25
93.78
92.13
87.81
81.72
74.79
67.69
60.92
54.85
49.77
45.74
42.37
38.61
32.94
23.81
10.22
-7.86
-29.40
-52.68
-75.78
-96.99
-114.98
-128.69
-137.27
-140.27
-137.93
-131.37
-122.54
-113.63
-106.36
-101.33
-97.93
-94.80
-90.52
-84.32
-76.24
-66.97
-57.38
-48.15
-39.61
-31.93
-25.25
-19.81
-15.83
-13.41
-12.39
-12.34
-12.69
-12.88
-12.56
-11.68
-10.42
-9.14
-8.16
-7.63
-7.46
-7.35
-7.03
-6.36
-5.51
-4.89
-4.94
-5.90
-7.65
-9.70
-11.47
-12.52
-12.81
-12.71
-12.89
-14.07
-16.77
-21.03
-26.36
-31.70
-35.62
-36.69
-33.90
-26.95
-16.42
-3.59
9.93
22.59
33.30
41.55
47.42
51.41
54.24
56.62
59.10
61.95
65.12
68.28
71.02
72.98
74.08
74.53
74.82
75.51
77.11
79.96
84.14
89.39
95.05
100.03
102.95
102.49
97.91
89.37
78.04
65.75
54.31
44.86
37.63
32.09
27.37
22.84
18.23
13.60
8.99
4.21
-1.18
-7.68
-15.57
-24.68
-34.48
-44.33
-53.74
-62.59
-71.11
-79.68
-88.49
-97.38
-105.84
-113.16
-118.78
-122.48
-124.53
-125.49
-126.01
-126.55
-127.27
-127.94
-128.05
-126.86
-123.63
-117.71
-108.72
-96.72
-82.29
-66.48
-50.65
-36.19
-24.10
-14.82
-8.12
-3.31
0.45
3.88
7.36
10.92
14.44
17.81
20.99
24.07
27.13
30.14
32.97
35.47
37.51
39.04
40.10
40.71
40.84
40.40
39.30
37.52
35.16
32.43
29.54
26.69
23.99
21.49
19.21
17.15
15.31
13.69
12.21
10.75
9.20
7.45
5.51
3.43
1.31
-0.74
-2.59
-4.03
-4.78
-4.51
-2.97
-0.10
3.88
8.50
13.21
17.53
21.22
24.19
26.44
27.90
28.36
27.48
24.95
20.75
15.23
9.19
3.65
-0.43
-2.53
-2.72
-1.61
-0.15
0.73
0.32
-1.67
-5.20
-9.94
-15.40
-21.05
-26.34
-30.82
-34.16
-36.18
-36.84
-36.24
-34.58
-32.17
-29.37
-26.50
-23.83
-21.44
-19.29
-17.29
-15.40
-13.66
-12.08
-10.63
-9.16
-7.49
-5.43
-2.96
-0.21
2.61
5.31
7.86
10.30
12.73
15.12
17.29
18.93
19.73
19.54
18.46
16.81
15.02
13.40
12.04
10.79
9.30
7.25
4.49
1.17
-2.35
-5.66
-8.46
-10.72
-12.68
-14.77
-17.42
-20.97
-25.46
-30.62
-35.83
-40.12
-42.40
-41.65
-37.29
-29.43
-18.98
-7.46
3.46
12.44
18.83
22.68
24.55
25.08
24.75
23.81
22.43
20.90
19.75
19.58
20.85
23.63
27.52
31.80
35.69
38.66
40.57
41.65
42.34
43.09
44.14
45.46
46.70
47.41
47.21
46.02
44.17
42.35
41.37
41.87
44.01
47.43
51.38
55.00
57.70
59.36
60.41
61.61
63.73
67.21
71.99
77.48
82.77
86.83
88.69
87.63
83.31
75.91
66.27
55.78
46.18
38.98
35.04
34.30
35.92
38.69
41.58
43.97
45.42
45.20
41.97
33.95
19.69
-1.00
-26.43
-53.30
-77.79
-96.99
-109.81
-117.22
-121.48
-124.91
-128.81
-133.00
-136.05
-136.17
-132.16
-123.93
-112.54
-99.48
-85.87
-71.98
-57.39
-41.72
-25.29
-9.43
4.16
14.18
20.47
23.96
26.05
27.82
29.57
31.03
31.83
31.93
31.56
30.93
30.03
28.61
26.53
23.90
21.02
18.14
15.19
11.89
8.00
3.61
-0.90
-5.02
-8.51
-11.63
-14.95
-19.02
-23.97
-29.41
-34.62
-38.95
-42.11
-44.18
-45.44
-46.12
-46.28
-45.95
-45.22
-44.27
-43.24
-42.05
-40.34
-37.66
-33.80
-28.96
-23.80
-19.19
-15.77
-13.76
-12.94
-12.79
-12.76
-12.28
-10.79
-7.77
-2.84
3.92
11.82
19.60
25.83
29.46
30.19
28.57
25.74
22.87
20.79
19.72
19.35
19.06
18.22
16.43
13.63
10.14
6.61
3.92
3.01
4.66
9.11
15.77
23.08
28.80
30.60
26.97
17.75
4.22
-11.36
-26.65
-39.83
-50.01
-57.00
-60.94
-62.04
-60.55
-56.85
-51.50
-45.17
-38.38
-31.45
-24.50
-17.63
-10.95
-4.52
1.70
7.85
14.00
19.94
25.10
28.77
30.49
30.37
29.16
27.89
27.50
28.45
30.68
33.84
37.58
41.65
45.83
49.71
52.59
53.52
51.52
46.01
37.05
25.54
13.11
1.70
-7.04
-12.37
-14.78
-15.83
-17.49
-21.24
-27.36
-34.88
-42.05
-47.17
-49.34
-48.66
-46.09
-42.81
-39.82
-37.64
-36.39
-35.82
-35.57
-35.20
-34.30
-32.50
-29.64
-25.79
-21.16
-15.94
-10.16
-3.55
4.35
13.84
24.73
36.14
46.60
54.31
57.72
55.93
48.88
37.39
23.10
8.25
-4.65
-13.43
-16.89
-15.33
-10.48
-4.90
-0.91
0.16
-1.78
-6.17
-12.63
-21.46
-33.50
-49.33
-68.42
-88.92
-108.06
-123.16
-132.45
-135.48
-132.87
-125.76
-115.34
-102.61
-88.34
-73.27
-58.10
-43.45
-29.73
-17.12
-5.67
4.64
13.82
21.94
29.22
36.04
42.82
49.90
57.34
64.99
72.55
79.81
86.74
93.50
100.23
106.93
113.32
118.95
123.37
126.24
127.38
126.73
124.37
120.52
115.64
110.38
105.50
101.65
99.14
97.79
97.04
95.96
93.54
88.94
81.77
72.25
61.18
49.73
39.02
29.81
22.32
16.30
11.16
6.04
-0.25
-9.08
-21.65
-38.28
-57.84
-77.70
-94.44
-104.98
-107.69
-102.86
-92.47
-79.33
-66.26
-55.46
-48.35
-45.54
-46.83
-51.13
-56.50
-60.70
-61.83
-59.25
-53.85
-47.72
-43.17
-41.67
-43.14
-46.09
-48.53
-49.00
-47.35
-44.66
-42.44
-41.73
-42.54
-43.88
-44.35
-42.81
-38.80
-32.53
-24.74
-16.46
-8.87
-3.13
-0.13
-0.16
-2.74
-6.65
-10.24
-11.98
-10.87
-6.70
-0.20
7.20
13.80
18.24
20.07
19.88
18.95
18.42
18.69
19.15
18.66
16.33
12.20
7.35
3.30
1.24
1.45
3.40
6.18
9.07
11.72
13.97
15.57
16.13
15.27
12.94
9.55
5.87
2.82
1.08
0.90
2.09
4.12
6.35
8.25
9.59
10.56
11.62
13.24
15.58
18.26
20.48
21.38
20.50
18.09
15.04
12.51
11.42
12.09
14.16
16.76
18.79
19.16
17.08
12.22
4.85
-4.13
-13.38
-21.47
-27.33
-30.60
-31.67
-31.42
-30.73
-30.16
-29.85
-29.60
-29.18
-28.56
-27.91
-27.50
-27.54
-27.94
-28.33
-28.11
-26.59
-23.25
-17.98
-11.24
-4.03
2.37
6.78
8.58
7.78
4.89
0.57
-4.63
-10.36
-16.05
-20.75
-23.00
-21.22
-14.65
-4.02
8.37
19.35
26.21
27.86
25.09
19.99
14.73
10.56
7.55
4.98
2.14
-1.22
-4.94
-8.89
-13.21
-18.40
-24.74
-31.94
-38.94
-44.26
-46.64
-45.51
-41.32
-35.34
-29.22
-24.53
-22.06
-21.74
-22.60
-23.20
-22.17
-18.69
-12.53
-3.96
6.54
18.45
31.24
44.23
56.43
66.56
73.20
75.22
72.33
65.30
55.99
46.72
39.62
35.95
35.86
38.47
42.40
46.32
49.45
51.60
53.07
54.23
55.18
55.55
54.55
51.36
45.63
37.98
30.08
23.87
20.59
19.82
19.53
17.12
11.04
1.99
-7.11
-12.47
-11.54
-4.49
5.57
13.99
16.74
12.21
1.85
-10.56
-20.64
-25.19
-23.29
-16.37
-7.36
0.60
5.28
5.99
3.38
-1.07
-5.80
-9.55
-11.46
-11.05
-8.17
-3.24
2.58
7.49
9.48
7.08
0.03
-10.57
-22.58
-33.48
-41.08
-44.13
-42.52
-37.32
-30.54
-24.69
-22.12
-24.17
-30.64
-39.80
-49.00
-55.68
-58.32
-56.71
-51.66
-44.22
-35.07
-24.39
-12.18
1.15
14.50
26.24
34.83
39.39
40.06
37.76
33.90
29.92
27.06
26.16
27.44
30.36
33.60
35.33
33.73
27.68
17.35
4.47
-7.98
-16.62
-18.83
-13.84
-3.17
9.86
21.38
28.47
30.31
28.21
24.74
22.49
23.05
26.89
33.77
43.21
54.51
66.36
76.45
81.68
79.16
67.54
47.91
23.68
-0.40
-19.89
-31.87
-35.55
-31.98
-23.41
-12.50
-1.71
7.07
12.84
15.60
16.26
16.16
16.49
17.75
19.61
21.31
22.19
21.98
20.82
18.90
16.19
12.46
7.67
2.29
-2.71
-6.28
-8.02
-8.51
-9.06
-11.00
-14.99
-20.86
-27.94
-35.58
-43.52
-51.72
-60.18
-68.61
-76.48
-83.29
-88.79
-92.94
-95.62
-96.32
-94.26
-88.93
-80.75
-71.44
-63.47
-59.12
-59.38
-63.45
-69.27
-74.50
-77.60
-78.32
-77.47
-76.12
-74.81
-73.31
-70.84
-66.59
-60.12
-51.48
-41.28
-30.67
-21.36
-15.27
-13.96
-17.70
-25.02
-32.98
-38.27
-38.60
-33.63
-24.82
-14.50
-4.54
4.41
12.86
21.74
31.49
41.66
51.11
58.65
63.60
66.00
66.46
65.75
64.44
62.68
60.29
56.93
52.37
46.74
40.62
34.87
30.34
27.54
26.40
26.37
26.60
26.41
25.50
24.14
22.95
22.63
23.62
25.79
28.46
30.61
31.22
29.71
26.24
21.65
17.34
14.72
14.68
17.27
21.50
25.69
28.03
27.14
22.58
15.15
6.78
0.11
-2.06
2.25
13.43
29.63
46.89
60.02
64.22
56.77
38.24
12.40
-14.97
-38.01
-52.65
-57.70
-55.03
-48.66
-43.23
-42.30
-47.10
-56.22
-66.31
-73.82
-76.59
-74.70
-69.98
-64.62
-59.78
-55.07
-49.28
-41.63
-32.55
-23.48
-15.69
-9.26
-2.75
5.87
17.82
32.53
47.73
60.41
68.33
70.90
69.14
64.96
60.09
55.39
50.82
45.85
40.10
33.70
27.36
21.90
17.80
14.93
12.65
10.23
7.38
4.38
2.00
1.02
1.86
4.31
7.61
10.77
12.89
13.45
12.43
10.17
7.25
4.21
1.47
-0.84
-2.86
-4.95
-7.45
-10.48
-13.79
-16.78
-18.81
-19.54
-19.13
-18.32
-17.96
-18.72
-20.78
-23.79
-27.31
-31.13
-35.45
-40.54
-46.35
-52.37
-58.14
-63.64
-69.28
-75.12
-79.99
-81.40
-76.61
-64.41
-46.51
-27.49
-13.13
-8.06
-13.81
-28.46
-47.94
-67.96
-85.50
-99.41
-109.91
-117.87
-123.97
-128.27
-129.45
-124.51
-109.13
-78.74
-30.85
32.91
105.81
176.90
233.56
265.11
266.02
237.84
189.10
132.92
83.34
51.45
42.46
55.01
82.40
115.31
144.79
164.44
171.31
165.63
149.91
127.98
104.30
83.08
67.55
58.86
55.58
54.05
49.82
39.49
22.14
-0.37
-24.15
-45.00
-59.98
-68.15
-70.31
-67.86
-61.91
-53.03
-41.74
-29.32
-17.97
-10.26
-8.03
-11.61
-19.81
-30.86
-43.42
-57.01
-71.62
-86.66
-100.19
-109.06
-110.07
-101.55
-84.46
-62.33
-40.12
-22.41
-11.92
