1638177481.00
64.000000
-0.00
-0.00
-0.00
-0.00
-0.00
-0.00
-0.00
-0.00
-0.00
-0.00
0.00
0.01
0.01
-0.00
-0.03
-0.05
-0.05
0.00
0.13
0.36
0.66
1.01
1.37
1.72
2.06
2.40
2.79
3.25
3.81
4.44
5.09
5.72
6.31
6.89
7.51
8.25
9.13
10.23
11.44
12.66
13.77
14.75
15.68
16.73
18.11
19.95
22.43
25.33
28.37
31.30
34.01
36.62
39.49
43.04
47.54
53.27
59.82
66.67
73.30
79.51
85.51
91.87
99.28
108.11
118.69
130.34
142.23
153.63
164.29
174.57
185.29
197.74
210.28
224.73
241.33
260.06
280.04
298.93
313.00
317.95
310.30
288.55
254.27
210.67
161.90
111.66
62.42
15.27
-29.43
-71.57
-111.22
-148.38
-183.70
-218.43
-253.86
-290.42
-327.17
-361.43
-389.19
-407.02
-413.08
-408.02
-394.73
-376.87
-357.10
-336.55
-314.67
-290.58
-263.85
-235.29
-206.70
-180.42
-158.05
-140.30
-126.42
-114.90
-103.86
-91.87
-78.71
-65.23
-52.91
-42.92
-35.66
-30.38
-25.92
-21.26
-15.99
-10.23
-4.11
1.90
7.81
13.32
18.51
23.69
29.31
35.21
40.56
43.46
42.17
36.00
26.33
16.78
11.75
14.11
23.69
36.74
47.75
51.58
46.13
33.01
16.24
0.47
-10.34
-14.16
-11.18
-2.76
8.36
19.45
28.17
32.72
32.69
28.60
22.26
15.74
11.30
10.47
13.84
20.17
27.34
32.51
33.62
30.26
23.23
14.51
6.08
-0.89
-5.99
-8.91
-9.35
-7.01
-2.16
3.51
7.56
7.41
2.20
-6.59
-15.35
-20.17
-18.51
-10.34
2.01
15.10
25.37
30.40
29.37
23.17
13.46
2.71
-6.21
-10.94
-9.45
-1.55
11.15
25.27
36.98
43.10
42.17
34.76
22.79
9.68
-1.05
-6.03
-2.98
7.74
22.85
36.97
44.41
41.46
28.69
10.43
-6.66
-17.18
-19.47
-15.41
-9.41
-5.38
-5.46
-9.07
-14.60
-19.95
-23.55
-24.32
-21.68
-16.23
-9.72
-5.43
-6.43
-14.44
-28.12
-43.13
-53.72
-55.20
-46.36
-29.93
-11.07
5.11
15.35
19.58
19.87
18.92
18.42
18.46
18.53
18.20
17.69
17.86
19.81
23.64
27.86
29.77
26.58
17.39
3.72
-10.12
-18.75
-18.05
-8.07
6.76
19.61
24.32
19.57
8.71
-1.86
-6.97
-5.44
-0.64
2.39
0.76
-4.92
-10.72
-12.76
-9.54
-2.83
3.24
5.01
0.99
-7.25
-16.60
-23.42
-25.36
-21.84
-14.40
-6.10
0.24
2.89
2.24
-0.02
-1.25
-0.19
3.19
7.80
12.50
17.14
22.20
27.87
33.14
36.73
37.34
35.14
31.68
28.52
26.26
24.00
20.03
13.18
4.12
-4.93
-11.80
-15.24
-15.86
-15.43
-15.40
-15.85
-15.92
-14.45
-11.38
-7.94
-5.68
-5.97
-8.63
-12.44
-15.53
-16.69
-15.16
-11.49
-6.37
-0.63
5.26
11.58
18.43
25.77
32.78
38.01
39.62
36.58
29.03
18.34
7.62
0.01
-2.27
0.50
5.90
9.89
8.69
0.70
-13.31
-29.96
-45.34
-56.00
-60.07
-57.03
-47.74
-33.92
-18.08
-3.66
6.53
10.72
9.43
4.65
-0.85
-5.31
-7.69
-7.45
-3.98
3.18
13.06
23.48
30.95
32.77
28.64
21.02
14.19
11.09
11.96
14.42
15.53
13.50
9.18
5.13
3.67
5.76
9.66
12.91
13.21
10.29
5.61
1.59
0.11
1.39
3.94
5.67
5.47
3.39
1.19
0.46
2.05
5.82
10.13
13.52
14.64
13.38
10.08
5.78
1.46
-2.09
-4.70
-7.16
-9.79
-13.02
-15.92
-17.45
-16.72
-13.71
-9.63
-5.57
-2.48
0.08
2.62
5.69
8.72
10.91
11.69
11.67
12.39
14.59
17.83
19.52
16.86
8.40
-4.50
-18.01
-28.21
-32.68
-32.21
-28.82
-24.86
-20.75
-15.14
-6.96
3.74
14.33
21.74
23.29
19.35
12.18
4.94
-0.22
-3.13
-5.06
-7.74
-11.68
-16.68
-21.37
-24.76
-26.36
-26.09
-24.56
-21.84
-17.97
-12.34
-4.53
5.99
18.77
31.98
42.90
48.06
45.46
35.06
20.19
5.80
-3.60
-5.97
-2.79
2.69
6.73
7.72
5.99
3.12
0.03
-3.03
-6.67
-11.17
-15.40
-17.77
-16.58
-12.15
-6.29
-1.79
-1.03
-4.39
-10.08
-15.36
-18.33
-18.22
-16.11
-13.69
-11.97
-10.74
-8.57
-3.94
3.73
13.48
23.26
30.72
34.70
35.20
32.97
28.48
22.04
13.71
4.00
-5.63
-13.50
-18.13
-19.21
-17.57
-14.61
-11.54
-8.60
-5.49
-1.80
1.77
3.82
2.79
-2.12
-9.77
-17.21
-21.23
-19.45
-11.72
-0.11
12.16
21.66
26.27
25.40
19.38
9.90
-1.00
-10.44
-16.14
-16.42
-11.97
-5.01
1.14
3.93
2.80
-0.75
-4.03
-5.32
-4.56
-3.44
-4.12
-7.63
-13.59
-19.93
-24.10
-23.84
-18.60
-8.92
3.17
15.73
26.84
35.15
39.83
39.97
35.44
27.23
17.58
9.84
6.77
9.21
15.10
20.79
22.14
17.84
9.37
1.06
-3.04
-1.31
4.55
10.70
13.48
11.06
4.92
-1.88
-6.57
-8.15
-7.87
-7.82
-9.43
-11.91
-13.57
-12.38
-8.30
-3.61
-1.47
-4.39
-12.38
-22.61
-30.65
-32.68
-27.03
-15.42
-2.09
8.36
12.66
10.80
5.36
0.49
-0.88
1.69
5.90
8.76
8.22
4.36
-0.67
-4.53
-6.13
-6.32
-6.80
-9.20
-13.61
-18.67
-22.65
-23.89
-21.96
-17.09
-10.42
-2.95
3.96
9.08
11.78
11.62
9.30
5.90
2.85
1.02
0.46
0.72
0.96
1.27
2.12
4.75
9.62
16.32
22.86
27.09
27.49
24.23
19.37
15.18
13.36
13.27
13.18
10.83
5.46
-1.64
-8.29
-11.97
-12.14
-9.51
-6.28
-4.42
-4.49
-6.09
-7.66
-8.16
-6.86
-3.87
0.11
4.24
7.77
10.20
11.23
10.85
9.35
7.26
4.89
2.82
1.25
0.17
-0.54
-1.48
-3.11
-6.36
-11.46
-18.51
-26.40
-33.23
-36.96
-36.14
-31.28
-24.20
-17.66
-13.92
-13.86
-16.46
-19.27
-19.43
-14.99
-6.31
4.18
12.48
15.26
11.13
2.16
-7.50
-12.96
-11.01
-2.08
10.60
21.93
27.91
27.09
20.97
12.68
5.45
1.40
0.60
2.44
5.63
9.64
14.44
20.12
25.93
30.34
31.70
28.93
23.02
15.85
10.03
7.08
6.60
7.07
6.71
4.87
1.83
-1.00
-3.03
-4.41
-5.58
-6.48
-5.98
-2.87
3.24
10.47
15.48
14.46
6.09
-7.43
-21.09
-29.03
-28.23
-19.49
-7.26
3.21
8.22
7.87
4.84
2.40
2.14
2.93
2.36
-1.68
-8.91
-16.97
-22.05
-21.15
-13.70
-1.54
11.38
20.89
23.89
20.02
10.78
-0.84
-11.92
-20.41
-25.34
-26.80
-25.18
-21.39
-16.62
-12.09
-9.11
-8.42
-9.74
-11.57
-12.62
-11.81
-9.72
-7.43
-6.36
-6.77
-7.56
-7.30
-4.51
0.54
6.46
10.96
12.38
10.46
6.60
3.44
2.79
5.31
9.22
12.23
12.08
8.62
3.52
-0.65
-1.50
1.22
6.29
11.51
15.43
17.47
18.07
18.04
17.42
15.98
12.87
7.83
0.86
-7.15
-14.83
-20.43
-22.21
-19.16
-11.56
-1.57
7.62
12.55
11.21
4.11
-6.21
-16.19
-22.72
-23.86
-19.46
-10.36
1.35
13.25
22.79
27.80
27.53
22.47
14.87
7.40
2.30
0.64
1.92
5.03
8.70
11.84
13.60
13.61
11.65
8.61
5.59
3.77
3.45
4.47
6.14
7.50
7.81
6.25
2.82
-2.36
-8.09
-13.16
-16.68
-18.17
-18.34
-17.78
-17.12
-15.99
-13.71
-9.74
-4.57
0.23
3.25
3.78
2.25
-0.42
-3.42
-7.06
-11.53
-16.55
-21.53
-25.00
-25.98
-23.67
-18.66
-11.84
-4.71
1.14
4.83
5.74
4.48
1.70
-1.34
-3.90
-5.78
-6.96
-7.57
-7.02
-4.77
0.05
7.15
15.86
24.66
31.80
35.67
35.16
29.90
20.67
9.75
-0.42
-7.50
-10.48
-10.08
-8.17
-6.93
-7.23
-8.81
-9.92
-9.07
-5.60
-0.46
4.21
6.52
5.40
1.78
-2.32
-4.99
-5.46
-4.29
-2.73
-1.68
-0.79
0.55
3.00
5.54
6.52
4.24
-1.23
-7.81
-12.82
-14.29
-12.23
-8.11
-3.64
1.03
6.62
13.84
22.04
28.73
30.93
26.65
16.78
4.47
-5.83
-10.26
-7.45
0.94
11.35
19.15
20.62
14.31
1.42
-14.33
-28.20
-35.91
-35.37
-27.14
-14.39
-1.36
7.93
11.27
8.94
2.89
-3.74
-8.47
-10.24
-9.63
-8.33
-7.72
-8.36
-9.46
-10.04
-9.22
-7.01
-4.03
-1.13
0.98
2.29
2.83
3.34
4.20
5.85
7.94
9.93
11.05
10.84
9.82
8.97
9.70
12.33
16.23
19.85
21.32
19.91
15.85
10.53
5.01
0.42
-2.74
-4.31
-4.05
-1.95
2.08
7.12
12.22
15.79
16.40
13.15
6.24
-2.59
-10.63
-14.62
-12.90
-5.96
2.91
9.27
9.18
1.76
-10.55
-22.86
-29.90
-28.93
-20.53
-8.29
3.15
10.14
11.30
8.16
3.23
-0.80
-3.37
-5.32
-8.58
-13.69
-18.95
-21.01
-16.64
-5.54
9.00
20.95
24.96
18.73
4.62
-11.60
-23.43
-26.49
-20.87
-10.09
0.13
5.09
2.53
-6.42
-18.09
-27.67
-30.76
-25.50
-12.34
5.59
23.78
37.65
44.04
42.20
33.48
21.32
8.91
-0.98
-7.68
-11.57
-13.59
-13.88
-11.94
-7.31
-0.44
6.68
11.79
12.64
8.85
2.08
-4.86
-9.14
-9.39
-5.55
0.91
8.25
14.58
18.33
18.71
15.49
9.63
2.34
-4.59
-10.12
-13.46
-14.76
-14.44
-12.72
-10.24
-7.58
-5.94
-6.15
-8.75
-12.86
-16.87
-19.05
-18.99
-17.73
-16.41
-15.79
-14.89
-12.12
-5.96
3.40
13.56
21.30
24.00
21.24
14.67
7.00
0.40
-4.23
-7.22
-9.23
-9.97
-8.68
-4.09
3.44
12.33
19.99
23.93
23.36
19.11
13.71
9.43
7.70
8.40
10.96
14.41
17.85
20.78
22.34
21.91
18.75
12.77
4.56
-4.11
-11.28
-15.29
-15.18
-11.75
-7.00
-3.52
-2.80
-4.85
-7.64
-8.13
-4.01
5.06
16.51
26.51
31.45
30.12
23.94
15.94
9.16
5.09
3.76
3.57
3.24
1.74
-1.25
-5.80
-11.94
-19.31
-26.66
-31.71
-32.46
-27.60
-18.32
-7.99
-0.51
1.31
-2.67
-10.25
-17.52
-21.21
-20.05
-15.17
-8.95
-3.84
-1.27
-0.96
-2.29
-4.00
-5.65
-6.96
-8.26
-9.53
-10.52
-10.96
-10.41
-9.17
-7.53
-6.24
-5.73
-6.42
-8.26
-10.54
-12.13
-11.52
-7.79
-1.02
7.26
14.92
19.81
20.87
18.40
14.33
11.25
10.65
12.75
15.64
16.95
15.06
10.07
3.82
-1.78
-5.21
-7.01
-8.12
-9.59
-11.11
-11.00
-7.56
-0.44
8.37
15.66
18.27
15.39
8.55
0.62
-5.68
-9.24
-10.20
-9.61
-7.74
-4.58
0.23
5.84
10.48
12.01
9.33
3.73
-2.16
-5.21
-4.74
-2.10
-0.28
-1.79
-6.60
-12.64
-16.68
-16.71
-12.50
-5.97
0.44
4.74
6.34
5.98
4.86
4.31
5.12
7.52
10.83
14.06
16.07
16.04
14.36
11.90
9.99
9.23
9.96
11.32
12.66
13.33
12.86
11.43
8.72
4.96
0.34
-4.30
-8.04
-9.91
-9.83
-8.57
-7.49
-7.83
-9.98
-13.32
-16.28
-17.79
-17.26
-15.52
-14.01
-13.48
-14.11
-14.44
-12.98
-8.84
-2.88
2.99
6.71
7.60
7.11
7.30
10.27
15.96
22.46
26.82
26.92
22.58
15.63
8.95
4.59
3.41
4.24
5.61
5.96
4.91
3.15
1.66
1.54
2.66
4.35
4.62
1.75
-4.53
-12.78
-19.78
-22.54
-19.55
-12.30
-4.03
1.63
3.20
2.05
1.09
2.90
7.44
12.19
12.93
7.21
-4.40
-17.60
-26.77
-27.88
-20.39
-8.00
3.97
10.67
10.38
4.17
-5.20
-14.89
-23.33
-29.43
-32.37
-31.32
-25.70
-16.38
-5.61
3.39
7.72
6.36
0.59
-6.95
-13.01
-14.96
-11.59
-3.53
7.34
18.22
25.96
28.63
25.70
18.63
9.92
2.12
-3.18
-5.31
-4.40
-1.16
3.73
8.76
12.28
13.00
10.37
5.28
0.06
-3.10
-2.82
0.32
4.27
6.98
7.15
5.37
3.58
3.71
6.57
11.22
15.46
16.75
13.58
6.25
-3.50
-12.80
-19.00
-20.55
-17.46
-10.77
-2.37
6.18
13.54
18.80
21.17
20.06
15.44
8.29
0.53
-5.50
-8.01
-7.08
-4.38
-2.46
-3.69
-8.44
-15.31
-21.31
-23.99
-22.25
-17.42
-12.51
-10.44
-12.65
-18.02
-23.64
-25.99
-23.26
-15.70
-5.84
3.51
10.63
15.30
18.88
22.40
26.31
29.61
31.51
31.82
31.24
30.85
30.90
30.71
28.86
24.51
17.84
10.22
2.99
-3.24
-7.96
-11.00
-11.34
-8.03
-1.43
5.96
9.94
6.63
-5.19
-22.40
-39.31
-49.57
-50.35
-42.80
-31.62
-22.03
-16.74
-15.13
-13.79
-10.02
-3.01
4.75
9.31
7.39
-1.47
-13.82
-23.97
-26.27
-18.82
-3.53
13.74
26.52
31.02
27.42
19.47
12.03
8.59
9.18
11.78
13.12
11.23
6.28
-0.35
-6.49
-11.08
-13.63
-14.62
-14.14
-12.33
-8.84
-3.33
3.88
12.25
20.07
25.74
27.56
25.10
19.39
12.35
6.48
3.07
2.04
1.84
0.71
-2.25
-6.58
-10.60
-12.58
-11.60
-8.00
-2.73
3.00
8.11
12.11
14.57
15.31
14.22
11.41
7.24
2.44
-2.42
-6.39
-8.51
-8.32
-5.77
-2.01
1.51
3.35
2.90
0.82
-1.50
-2.87
-2.92
-2.45
-2.56
-3.90
-5.91
-7.13
-6.41
-3.48
-0.00
1.80
0.03
-5.16
-11.47
-15.51
-14.40
-7.85
1.83
10.29
13.66
10.55
2.93
-5.08
-9.62
-9.01
-4.22
1.84
6.33
8.04
7.53
5.92
4.33
2.83
1.13
-1.25
-4.03
-6.65
-8.22
-8.09
-6.43
-3.45
-0.08
3.31
6.16
8.08
8.64
7.15
3.66
-1.55
-6.96
-10.78
-11.36
-8.19
-2.34
4.21
9.13
11.29
10.84
9.32
7.93
7.19
6.55
5.09
2.61
-0.48
-2.91
-3.88
-3.26
-1.87
-0.20
1.52
3.30
5.22
6.35
5.75
2.23
-3.89
-11.23
-17.38
-20.11
-18.90
-14.58
-9.24
-4.80
-2.01
-0.03
2.31
5.79
9.75
12.23
11.53
6.70
-1.18
-9.70
-15.91
-17.87
-15.28
-9.50
-2.94
2.34
4.80
4.38
2.08
-0.46
-2.07
-2.23
-0.97
1.00
3.54
6.23
9.24
12.18
14.17
13.86
10.35
3.82
-4.70
-12.74
-18.28
-19.42
-16.22
-10.03
-3.30
1.38
2.30
-0.53
-5.10
-9.20
-10.46
-8.33
-3.60
1.77
5.62
6.51
4.15
-0.21
-4.97
-8.12
-8.70
-6.79
-3.09
1.52
6.83
13.03
20.76
29.39
37.21
41.51
39.86
32.03
19.70
6.63
-3.75
-9.43
-10.76
-9.34
-7.41
-5.90
-4.39
-2.11
1.40
4.96
7.16
6.54
3.03
-2.07
-6.80
-9.58
-10.48
-10.04
-9.33
-8.70
-8.25
-7.69
-7.34
-7.63
-8.66
-10.29
-11.41
-11.24
-9.37
-6.13
-2.28
1.48
4.73
7.58
9.90
11.78
12.67
12.54
11.25
9.38
7.31
4.83
1.60
-3.24
-9.54
-16.39
-21.75
-23.71
-21.43
-15.74
-9.08
-3.78
-0.98
0.40
2.17
5.94
11.02
14.60
13.21
4.91
-8.31
-21.43
-28.30
-25.36
-13.92
0.74
11.92
15.41
11.22
3.10
-4.54
-8.82
-9.68
-8.47
-5.83
-1.19
6.74
17.71
29.44
37.62
38.81
32.18
20.02
6.35
-5.34
-13.47
-18.70
-22.47
-25.84
-28.02
-27.16
-21.70
-11.82
0.02
10.22
15.39
14.72
9.83
4.27
1.11
1.66
4.77
8.05
9.41
8.08
4.95
1.84
0.02
-0.11
0.38
0.30
-1.28
-4.09
-7.01
-8.22
-6.55
-2.00
3.91
9.13
11.97
11.89
9.94
7.67
6.79
7.59
9.46
11.13
11.00
8.58
3.95
-1.65
-6.29
-8.06
-6.15
-0.97
5.40
10.46
12.22
10.31
6.14
1.77
-1.14
-2.15
-1.96
-1.33
-0.76
-0.19
0.49
1.10
0.68
-1.65
-6.73
-14.02
-21.78
-27.71
-29.85
-28.11
-23.51
-18.09
-13.73
-11.18
-10.66
-11.67
-13.29
-14.25
-13.24
-8.45
0.47
12.42
24.32
32.39
34.30
30.01
22.12
13.84
7.08
1.28
-5.07
-12.66
-19.98
-23.96
-22.20
-14.39
-3.58
6.10
11.52
12.25
10.59
8.96
8.90
9.58
9.00
5.66
-0.33
-7.23
-12.54
-14.22
-12.17
-7.38
-1.67
3.57
7.39
9.80
10.83
10.46
8.96
6.63
4.77
4.61
6.71
10.58
14.64
16.85
15.65
11.18
4.74
-1.60
-6.04
-7.78
-7.18
-5.44
-3.98
-3.79
-5.25
-8.06
-10.75
-11.35
-8.28
-1.03
8.62
16.95
20.33
17.19
8.69
-1.18
-8.32
-10.44
-8.16
-4.48
-2.46
-3.27
-5.88
-8.22
-8.36
-6.17
-2.87
-0.31
0.45
-0.40
-1.85
-2.35
-1.12
1.87
5.52
8.52
9.72
8.51
5.58
2.25
-0.09
-0.68
0.59
2.81
5.29
7.94
10.91
14.26
16.75
16.44
11.10
-0.07
-15.52
-31.19
-42.16
-45.08
-39.22
-27.69
-14.89
-5.13
0.00
1.39
1.22
1.37
2.03
2.35
1.12
-1.67
-4.68
-6.11
-4.63
-0.53
4.87
9.58
12.09
11.36
7.40
1.12
-5.38
-9.06
-7.69
-0.62
9.79
19.31
23.46
20.54
12.21
3.06
-1.96
-0.94
4.65
10.39
12.75
10.96
7.92
7.76
12.75
22.02
31.47
36.69
34.73
25.89
12.78
-1.21
-13.43
-22.55
-28.40
-31.77
-33.18
-33.71
-34.38
-35.79
-37.30
-37.06
-33.27
-24.83
-13.41
-2.29
4.71
6.10
3.20
-0.42
-0.98
2.60
8.74
13.96
15.51
12.92
8.30
4.78
4.39
7.20
11.12
14.21
14.90
13.33
10.29
7.37
6.08
6.99
9.95
13.09
13.84
9.37
-0.86
-14.86
-28.37
-36.78
-37.68
-31.78
-22.58
-13.42
-6.59
-1.72
2.75
7.91
13.78
19.00
21.96
21.42
17.33
10.29
1.96
-5.37
-9.84
-10.02
-6.52
-1.07
3.44
5.24
3.97
1.32
-0.24
0.60
3.76
7.14
8.97
8.59
7.54
7.69
10.45
15.12
19.13
19.99
15.85
7.59
-2.47
-11.19
-16.26
-16.69
-13.21
-7.56
-1.21
4.34
8.34
10.47
10.64
9.11
6.14
2.27
-2.33
-7.00
-11.50
-15.00
-16.86
-16.68
-14.64
-11.49
-8.05
-5.25
-2.88
-0.76
1.73
4.56
7.19
9.29
10.36
10.62
9.78
7.73
3.75
-1.99
-8.62
-14.26
-16.74
-15.10
-9.65
-2.05
6.16
13.56
19.13
21.47
18.96
10.84
-2.02
-16.55
-28.67
-35.01
-34.93
-30.03
-23.21
-16.99
-12.01
-7.64
-2.61
3.43
9.70
14.86
17.83
18.40
17.17
15.51
14.67
15.69
18.59
22.51
25.78
26.80
24.79
19.31
10.78
-0.34
-12.42
-23.43
-30.35
-30.78
-23.63
-10.57
4.63
17.50
24.26
23.59
16.85
7.24
-1.96
-8.33
-10.47
-8.66
-3.95
1.44
5.42
6.05
2.77
-3.45
-10.52
-16.26
-19.30
-19.16
-17.05
-14.77
-14.10
-15.80
-19.03
-21.97
-22.21
-18.87
-12.60
-5.78
-0.66
1.06
-0.54
-3.74
-6.58
-7.57
-6.67
-4.31
-1.31
2.23
6.68
12.16
18.08
22.45
23.68
20.96
15.24
8.52
3.63
2.27
4.45
8.88
13.26
16.05
16.36
14.42
10.72
5.60
0.01
-4.78
-6.97
-5.60
-0.70
5.39
9.73
9.83
5.28
-1.96
-8.68
-12.00
-11.02
-6.94
-2.43
0.23
0.26
-1.63
-3.88
-4.96
-3.93
-0.92
3.38
7.58
10.38
10.52
7.45
1.46
-6.35
-14.06
-19.43
-20.78
-17.64
-11.16
-3.76
1.43
2.26
-2.26
-10.43
-19.01
-23.81
-22.26
-14.28
-2.37
9.81
19.62
25.94
29.20
29.67
27.12
20.70
10.56
-1.20
-10.65
-13.64
-8.15
4.71
20.53
33.79
39.77
36.75
26.11
11.41
-3.23
-14.89
-22.24
-25.85
-27.18
-27.25
-26.67
-25.17
-22.90
-20.23
-18.20
-17.31
-16.90
-15.41
-10.99
-3.18
6.93
16.83
24.43
28.89
30.42
29.34
25.58
19.19
10.56
1.38
-5.88
-8.93
-7.17
-1.95
3.81
7.32
7.19
4.08
0.13
-2.41
-2.57
-1.15
0.02
-0.69
-3.95
-8.64
-13.25
-15.80
-15.12
-11.02
-4.23
3.88
11.92
18.06
20.76
18.79
12.34
2.78
-7.27
-15.10
-18.90
-18.01
-13.13
-5.77
1.92
7.77
9.46
6.19
-1.19
-9.84
-16.17
-18.06
-15.36
-10.63
-6.59
-5.14
-5.89
-6.90
-6.25
-3.26
1.43
6.62
11.67
16.73
21.85
25.97
26.87
22.11
11.37
-2.91
-15.64
-22.11
-20.10
-11.28
0.13
9.34
13.51
12.74
9.12
5.34
2.72
1.51
1.51
2.65
5.40
9.47
14.03
17.07
16.90
12.80
6.14
-0.85
-5.89
-7.75
-6.49
-3.31
-0.05
2.08
2.54
1.26
-1.20
-4.48
-8.30
-12.42
-16.28
-19.16
-19.72
-17.34
-12.30
-6.54
-2.60
-2.16
-5.45
-10.42
-14.05
-13.95
-9.97
-4.18
0.55
2.41
2.05
1.74
4.14
9.54
15.41
17.66
13.54
3.38
-9.21
-18.71
-21.06
-15.32
-4.11
8.11
17.04
20.61
18.58
11.97
2.32
-9.16
-20.96
-31.54
-39.20
-42.51
-41.18
-35.87
-27.95
-18.68
-9.24
0.06
9.32
18.18
25.34
28.79
27.11
20.36
11.13
3.26
0.55
4.26
12.36
20.76
25.56
25.66
22.92
20.99
22.33
26.81
31.24
31.75
26.44
17.07
7.58
1.76
1.09
3.94
7.35
8.61
7.22
4.63
2.83
2.86
4.00
4.44
2.12
-3.42
-11.25
-19.08
-24.91
-28.10
-29.59
-31.28
-34.32
-38.46
-41.60
-40.99
-35.01
-24.25
-12.03
-2.23
2.66
3.54
3.64
6.83
14.46
24.73
33.61
37.02
33.98
26.16
17.16
9.81
5.35
3.53
3.61
5.96
11.21
19.69
29.39
36.92
38.45
32.16
19.31
3.57
-10.42
-19.47
-22.24
-19.30
-12.70
-4.91
1.12
3.06
-0.75
-9.65
-20.87
-29.97
-32.90
-27.95
-16.75
-4.04
4.75
5.64
-1.79
-14.73
-28.31
-38.15
-42.08
-40.04
-33.22
-22.58
-9.20
5.20
17.59
24.25
22.74
13.55
1.11
-8.95
-12.38
-8.82
-1.78
3.93
5.11
2.03
-3.00
-7.44
-10.76
-13.84
-17.34
-19.90
-18.83
-12.11
-0.52
12.00
20.40
21.54
16.17
8.04
2.04
0.95
4.58
10.08
14.03
14.16
10.29
4.40
-0.93
-3.64
-2.90
0.70
5.68
10.35
13.67
14.99
14.53
12.98
11.17
9.96
9.72
10.55
11.62
11.94
10.10
5.29
-2.02
-9.97
-16.37
-19.46
-18.77
-15.47
-10.83
-6.15
-1.46
3.41
8.76
14.14
18.08
18.98
15.31
7.06
-4.54
-17.02
-27.74
-34.60
-36.37
-32.82
-24.15
-11.83
1.89
13.96
21.53
22.80
18.04
9.98
2.59
-0.52
2.20
9.65
18.53
25.46
28.79
29.03
28.14
27.70
28.26
28.61
27.10
22.73
16.08
9.34
4.48
2.60
2.83
2.89
0.38
-5.19
-13.00
-21.12
-27.50
-31.21
-31.79
-29.84
-25.92
-21.44
-17.85
-16.63
-18.27
-21.93
-25.67
-27.12
-25.08
-20.26
-14.93
-10.56
-7.21
-3.40
2.57
10.61
18.50
23.00
22.13
16.24
7.89
0.01
-5.17
-7.00
-6.25
-3.42
0.99
6.67
13.14
19.08
23.11
24.15
22.22
18.16
13.36
8.61
4.31
0.06
-4.65
-9.70
-14.46
-17.54
-17.94
-15.15
-9.91
-3.69
2.11
6.73
10.53
14.17
18.29
21.94
23.25
19.91
11.21
-1.14
-13.35
-20.94
-21.07
-13.89
-2.28
9.40
17.51
20.53
19.07
15.23
11.10
7.53
4.53
1.17
-3.17
-8.36
-13.52
-17.20
-17.84
-14.85
-8.90
-2.00
3.48
5.98
5.31
2.38
-1.43
-5.69
-10.75
-17.09
-23.92
-29.35
-30.76
-26.70
-18.07
-8.06
-0.11
3.56
3.19
1.05
-0.47
0.05
2.39
5.40
8.10
9.98
11.15
11.45
10.52
7.41
1.88
-5.86
-14.55
-22.36
-27.51
-28.16
-23.62
-14.19
-1.75
10.88
20.43
24.67
23.34
17.83
10.61
4.24
0.21
-1.73
-2.09
-1.51
-0.06
2.39
5.72
9.14
11.46
12.00
10.57
8.28
6.35
5.12
3.82
0.63
-5.49
-13.59
-20.34
-21.76
-15.43
-2.38
12.75
24.21
27.60
22.57
12.30
2.21
-3.17
-2.33
2.66
7.77
9.30
5.41
-2.43
-11.19
-17.73
-20.84
-21.14
-20.32
-19.87
-19.77
-19.54
-18.41
-16.87
-15.83
-15.73
-15.42
-12.69
-6.09
4.21
15.53
24.85
30.36
32.96
35.17
38.62
42.81
44.62
40.93
30.48
15.37
-0.25
-11.75
-16.46
-14.71
-8.89
-2.49
1.76
2.38
-0.67
-6.50
-13.74
-20.83
-26.44
-28.75
-26.67
-20.16
-11.34
-3.77
-1.06
-5.21
-14.57
-24.86
-30.91
-29.92
-22.69
-12.84
-4.90
-1.10
-0.73
-0.85
0.77
4.61
8.55
10.39
9.38
7.06
6.45
9.58
16.21
23.63
28.48
28.37
23.82
17.50
12.45
10.67
11.71
13.67
14.12
12.14
8.28
4.12
1.30
0.11
-0.14
-0.78
-2.85
-6.12
-9.23
-10.44
-8.89
-5.10
-0.92
1.63
1.32
-0.99
-3.25
-2.75
1.97
9.96
17.87
21.33
17.27
5.36
-10.57
-24.67
-31.15
-27.40
-15.24
0.02
12.14
17.11
14.31
6.72
-1.64
-7.55
-10.10
-10.07
-9.06
-8.09
-7.36
-6.32
-4.47
-2.12
0.11
1.22
0.64
-1.32
-3.73
-5.25
-5.13
-3.26
-0.95
0.25
-0.72
-3.63
-6.58
-7.80
-6.25
-3.05
-0.15
0.20
-2.19
-5.68
-7.71
-6.12
-1.17
5.36
10.69
13.21
12.81
11.09
9.22
7.23
4.15
-1.36
-9.02
-17.03
-22.49
-23.36
-19.48
-12.50
-5.33
-0.11
2.12
2.15
1.38
1.39
2.79
5.27
7.95
9.49
8.83
5.02
-1.33
-8.75
-14.56
-15.90
-11.25
-1.10
11.62
22.80
27.88
24.53
12.92
-3.36
-18.60
-27.28
-26.31
-16.67
-2.37
11.49
21.52
27.13
29.80
31.28
31.56
29.10
22.18
11.30
-1.29
-12.08
-18.52
-19.87
-17.25
-12.82
-7.93
-3.36
1.56
7.90
16.62
27.48
38.25
45.42
45.14
35.86
19.28
0.93
-12.92
-18.17
-15.15
-8.60
-4.33
-6.03
-12.90
-21.26
-26.81
-27.96
-26.16
-24.88
-26.78
-31.23
-35.02
-33.56
-24.14
-7.50
11.41
25.96
31.26
26.35
15.43
4.57
-1.13
-0.70
3.04
5.52
4.08
-0.67
-5.83
-7.86
-5.77
-1.31
2.22
2.41
-0.80
-5.79
-10.37
-13.94
-16.85
-19.85
-22.18
-21.86
-16.84
-6.83
5.97
17.76
24.96
26.72
24.69
22.43
23.07
27.36
34.03
40.05
42.95
41.15
34.61
23.73
9.84
-5.33
-19.65
-30.50
-36.02
-35.55
-30.46
-22.71
-14.02
-5.28
3.14
10.84
17.05
20.40
20.06
15.94
9.21
1.19
-6.55
-13.14
-17.69
-18.86
-15.71
-7.91
3.00
14.01
21.51
23.14
18.43
8.91
-3.14
-15.83
-27.39
-36.45
-41.52
-41.72
-36.73
-27.56
-16.62
-6.53
0.47
4.07
5.10
5.48
6.72
9.13
11.56
11.67
7.58
-1.59
-13.96
-25.95
-32.93
-31.73
-22.51
-8.59
4.63
12.87
14.45
11.85
9.14
10.21
16.47
26.10
35.11
39.22
36.29
26.00
10.97
-4.95
-17.93
-25.23
-26.52
-23.44
-18.96
-15.18
-13.07
-11.40
-8.56
-3.56
3.30
10.22
15.13
16.32
13.91
8.75
2.49
-3.13
-6.48
-6.33
-2.62
3.78
10.29
14.10
13.50
9.30
4.01
0.25
-1.15
-2.27
-6.04
-14.24
-24.92
-33.07
-33.07
-22.51
-4.31
14.36
25.73
26.27
17.68
5.90
-3.11
-6.48
-5.69
-4.41
-5.43
-8.81
-12.02
-11.65
-5.71
4.79
16.32
24.56
26.48
21.80
12.90
3.55
-3.43
-6.74
-7.38
-7.15
-7.23
-7.86
-8.11
-7.23
-5.37
-3.81
-3.75
-5.85
-9.61
-13.12
-14.62
-12.59
-6.70
2.46
12.76
21.39
25.47
23.54
16.11
6.12
-2.34
-6.11
-3.87
3.10
12.06
19.82
24.14
24.24
20.79
15.80
11.08
8.03
6.76
6.03
4.17
0.20
-5.36
-11.06
-14.74
-15.59
-14.43
-13.25
-14.28
-17.90
-22.47
-24.75
-22.36
-15.03
-5.22
3.63
9.00
10.63
10.36
10.23
11.10
11.91
10.96
7.13
1.07
-5.57
-10.77
-13.43
-14.06
-13.49
-12.50
-11.02
-8.72
-4.82
1.05
8.86
18.02
26.72
32.71
33.51
27.80
16.39
2.32
-10.65
-19.76
-24.11
-25.16
-25.16
-25.43
-25.78
-24.93
-21.27
-14.60
-6.26
1.72
7.14
9.47
9.15
7.93
7.12
7.44
8.75
10.17
11.26
11.46
11.32
11.33
12.64
15.81
20.62
25.84
29.22
28.98
24.13
15.89
6.61
-0.78
-4.40
-4.33
-2.35
-1.12
-2.33
-6.40
-11.49
-15.11
-15.00
-10.47
-2.89
5.00
9.65
9.15
3.05
-6.27
-15.61
-22.01
-24.10
-22.79
-20.10
-18.34
-18.20
-19.36
-20.14
-19.06
-15.57
-10.31
-4.95
-1.01
0.18
-1.02
-3.55
-5.61
-5.87
-4.00
-0.42
3.28
5.70
5.71
3.20
-1.54
-7.47
-13.14
-16.89
-16.95
-12.31
-2.42
11.07
24.92
34.82
37.41
31.58
19.47
5.89
-4.07
-7.18
-3.66
3.66
10.39
13.40
12.35
8.98
6.43
6.34
8.69
11.22
11.68
9.14
4.50
-0.13
-3.00
-3.19
-1.30
1.69
4.66
6.94
8.09
7.76
5.95
3.12
0.36
-1.61
-2.33
-2.53
-3.34
-5.51
-8.35
-9.94
-8.54
-3.29
4.06
10.49
12.76
9.39
1.42
-8.23
-15.78
-19.17
-18.46
-15.80
-13.67
-13.62
-14.92
-15.40
-13.29
-7.93
-0.53
6.90
12.85
17.19
20.38
22.84
23.98
22.10
16.05
6.08
-5.79
-16.69
-24.20
-27.34
-26.74
-23.61
-19.19
-13.66
-7.09
1.03
10.12
18.62
24.16
24.70
19.54
10.21
0.17
-7.41
-10.37
-9.18
-6.16
-3.84
-3.55
-4.64
-5.52
-4.80
-3.18
-2.31
-3.86
-7.87
-12.39
-14.55
-12.19
-5.71
2.63
9.43
12.57
11.67
8.24
4.47
1.76
0.57
0.23
0.34
0.67
2.33
5.98
11.62
17.90
22.23
22.45
17.73
9.44
0.20
-7.06
-10.53
-9.82
-5.67
0.08
6.22
12.00
17.47
22.29
25.74
26.32
22.26
12.92
-1.11
-17.13
-31.41
-40.14
-41.68
-36.66
-28.01
-19.16
-12.02
-6.87
-2.05
3.57
9.92
15.12
16.92
13.93
6.67
-2.27
-9.80
-13.58
-13.90
-12.83
-13.19
-16.34
-20.77
-22.88
-18.83
-7.94
7.11
20.53
27.15
25.12
16.48
5.61
-3.76
-10.17
-15.04
-19.78
-24.64
-27.69
-26.56
-20.16
-9.39
3.12
15.02
24.86
32.51
37.68
39.91
38.42
32.62
23.18
11.64
0.47
-8.44
-13.72
-15.00
-12.41
-6.86
-0.26
5.10
6.33
1.61
-9.02
-23.05
-36.11
-43.23
-40.45
-27.13
-5.80
17.75
37.57
48.88
50.47
44.07
33.28
21.95
12.71
7.19
5.54
7.45
12.09
18.08
23.64
26.73
26.13
21.53
13.85
4.16
-5.90
-14.61
-19.94
-20.02
-14.50
-5.53
2.14
3.72
-3.54
-18.06
-34.56
-47.26
-52.49
-50.96
-46.20
-42.67
-42.29
-44.19
-45.28
-42.93
-36.85
-29.03
-22.53
-18.95
-17.51
-14.93
-7.41
6.87
25.70
43.66
54.74
55.32
46.74
34.08
23.83
20.01
22.86
29.11
34.50
36.40
34.56
30.84
27.69
27.03
29.51
34.48
39.93
42.85
40.27
30.42
14.89
-1.92
-14.04
-17.55
-12.41
-2.80
4.89
5.24
-3.88
-19.96
-37.93
-51.81
-57.52
-53.62
-41.25
-23.51
-4.38
12.11
23.09
26.80
23.60
15.59
6.07
-1.65
-5.67
-5.84
-4.49
-4.51
-8.48
-16.38
-25.93
-33.73
-37.34
-37.04
-35.19
-35.13
-37.94
-41.86
-42.67
-37.03
-24.93
-10.06
2.08
7.84
6.95
3.14
1.01
3.53
10.07
17.40
22.16
22.40
18.78
13.01
6.75
0.13
-7.51
-15.99
-23.39
-26.26
-21.62
-8.31
11.18
31.98
48.33
56.24
54.94
46.49
35.29
25.44
19.99
19.54
23.27
28.99
34.44
37.75
37.34
32.67
23.77
11.76
-2.05
-15.95
-28.36
-38.10
-44.32
-46.98
-46.41
-43.69
-40.01
-36.72
-34.15
-31.79
-28.29
-21.83
-11.49
2.29
17.10
29.82
37.32
37.50
30.80
19.81
8.50
0.20
-3.67
-4.70
-5.76
-9.32
-15.53
-22.20
-26.28
-25.40
-19.46
-9.68
1.90
13.67
24.09
31.68
34.30
30.46
21.11
10.08
3.05
3.97
12.58
23.59
29.79
25.86
11.11
-10.20
-31.25
-45.77
-50.24
-44.02
-29.36
-10.38
7.68
19.28
20.52
10.51
-7.22
-26.14
-39.11
-41.64
-33.79
-19.25
-3.44
9.26
16.49
18.41
15.98
10.92
4.87
-0.50
-3.12
-1.54
5.22
16.31
29.69
42.08
50.18
51.25
44.12
30.05
12.31
-3.91
-13.78
-14.49
-7.00
3.95
11.91
11.80
2.56
-12.76
-28.23
-38.34
-40.38
-35.17
-25.54
-14.47
-3.90
5.80
14.14
20.51
23.36
21.40
14.88
5.75
-2.77
-8.18
-9.50
-8.44
-7.81
-10.11
-15.47
-21.38
-24.02
-20.76
-12.23
-1.86
6.22
9.91
10.03
9.53
10.84
13.45
14.11
8.72
-4.34
-22.75
-40.13
-49.38
-46.55
-32.93
-14.43
1.73
10.58
12.04
10.10
10.36
15.91
25.02
31.92
29.92
16.02
-6.94
-30.86
-46.75
-48.58
-36.18
-14.75
8.02
25.22
33.81
34.83
32.28
30.03
29.72
30.18
28.77
23.89
15.87
7.34
0.97
-1.72
-1.61
-0.52
0.15
0.57
2.26
6.21
11.87
16.56
17.52
13.61
6.54
-0.32
-4.24
-4.46
-2.79
-1.69
-3.30
-7.79
-13.97
-19.65
-22.73
-22.31
-18.44
-12.57
-6.70
-2.74
-1.63
-3.15
-6.19
-9.39
-12.34
-15.03
-17.98
-21.13
-23.64
-24.03
-21.23
-14.86
-5.69
4.67
14.32
21.31
24.32
23.22
18.98
13.71
9.66
8.40
9.81
12.30
13.15
10.69
5.14
-1.20
-5.47
-5.88
-2.93
1.27
4.89
7.05
8.69
11.54
16.23
21.53
24.68
23.18
16.75
8.01
0.88
-1.07
2.75
9.84
15.70
16.54
11.05
1.44
-8.42
-15.02
-17.01
-15.70
-13.68
-12.89
-13.37
-13.14
-10.40
-4.86
1.01
4.01
1.70
-5.43
-13.96
-19.29
-18.76
-12.72
-4.51
1.36
2.28
-1.83
-8.23
-13.23
-14.04
-9.95
-2.73
4.79
9.65
10.56
7.71
2.97
-1.19
-3.20
-3.08
-2.47
-3.58
-7.67
-14.14
-20.49
-23.74
-22.03
-16.12
-8.61
-2.82
-0.62
-2.34
-5.96
-9.24
-10.12
-7.90
-3.76
0.23
1.54
-1.06
-7.46
-15.41
-21.64
-23.21
-18.76
-9.86
0.36
8.19
11.48
10.17
5.93
0.80
-3.80
-7.18
-9.02
-8.53
-4.90
2.27
11.86
21.10
26.32
24.53
15.97
3.73
-6.52
-10.11
-5.14
6.36
19.71
30.36
35.82
36.90
35.86
34.90
34.38
33.63
32.21
31.08
32.90
39.54
50.53
61.35
65.82
58.69
39.12
11.42
-17.08
-39.07
-50.83
-52.82
-48.93
-43.71
-40.63
-41.24
-44.80
-49.33
-51.91
-50.37
-43.91
-34.19
-24.30
-16.97
-13.06
-10.75
-7.36
-1.37
5.76
10.29
8.51
-0.08
-11.62
-19.71
-18.76
-7.93
8.86
24.38
32.34
29.85
18.83
4.58
-6.70
-9.99
-3.62
10.74
28.32
43.51
51.55
50.00
38.91
20.27
-1.88
-22.97
-38.28
-44.38
-39.93
-26.36
-8.08
8.88
18.89
19.43
11.58
-0.43
-12.39
-21.70
-28.23
-33.23
-36.67
-36.86
-30.75
-17.13
2.20
21.91
35.38
38.17
30.39
17.34
6.54
4.18
11.14
23.33
33.86
37.34
33.07
24.61
17.90
16.73
20.37
23.58
19.84
5.37
-17.75
-41.46
-55.97
-54.33
-36.68
-9.59
17.15
35.53
42.24
38.48
27.84
13.33
-3.23
-20.65
-36.31
-45.87
-44.61
-31.16
-9.58
12.13
25.53
26.96
18.83
8.37
2.69
4.48
11.28
17.58
19.02
14.81
8.25
3.56
2.87
4.75
5.22
0.65
-9.79
-23.44
-35.90
-42.41
-40.53
-30.86
-16.75
-3.08
5.85
7.98
4.78
-0.17
-2.38
0.56
7.81
15.21
17.80
12.77
0.77
-13.77
-25.60
-31.04
-29.68
-23.58
-15.73
-8.33
-2.27
2.37
5.90
7.96
8.42
7.38
5.83
5.25
6.16
8.31
10.15
10.08
7.29
2.77
-1.51
-3.57
-1.93
3.11
10.18
16.68
20.71
21.10
18.50
14.35
10.15
6.55
2.94
-1.56
-7.86
-15.35
-22.70
-27.82
-29.58
-28.03
-24.25
-19.88
-15.93
-13.05
-11.19
-10.19
-9.62
-8.70
-6.73
-3.26
0.94
4.84
7.39
8.35
8.35
8.22
8.39
8.67
8.94
9.08
10.01
12.24
15.98
20.00
22.36
21.37
16.16
7.15
-4.45
-16.49
-26.71
-32.39
-31.68
-24.36
-12.91
-1.93
4.24
3.56
-2.42
-9.89
-14.77
-14.99
-11.19
-5.35
0.47
5.55
9.88
13.65
15.62
13.92
7.03
-4.74
-18.43
-29.66
-34.11
-30.34
-19.68
-5.76
8.03
19.48
28.16
34.82
39.97
43.44
44.09
41.17
34.74
26.17
17.40
10.42
6.87
7.16
11.01
16.52
20.96
21.17
15.20
3.71
-10.26
-22.24
-28.96
-29.31
-25.38
-20.69
-18.30
-19.16
-21.61
-22.61
-19.18
-10.80
0.79
11.98
19.33
20.88
17.08
10.53
4.37
1.55
3.10
8.54
15.42
20.12
19.35
10.78
-5.03
-25.04
-43.87
-56.17
-58.63
-51.34
-37.45
-21.42
-7.35
3.18
10.55
16.43
22.05
27.92
33.46
37.64
39.77
38.96
34.66
26.26
14.10
-0.34
-13.83
-22.81
-25.22
-21.42
-14.56
-8.33
-5.72
-7.29
-11.50
-15.71
-17.18
-14.58
-7.94
0.91
9.37
14.31
13.36
5.81
-6.72
-20.25
-29.86
-30.86
-21.46
-3.45
17.47
34.38
41.99
38.95
28.57
16.25
6.52
0.24
-4.42
-10.10
-16.98
-22.27
-22.42
-15.87
-5.22
4.49
8.59
6.54
1.31
-2.66
-2.99
-0.82
0.91
0.03
-2.87
-5.37
-4.76
-0.55
5.43
10.00
10.58
6.67
-0.86
-10.07
-19.52
-27.70
-32.82
-32.70
-25.67
-12.65
3.05
16.09
22.56
21.99
18.16
16.45
20.53
29.69
38.91
42.55
37.06
23.72
6.63
-9.69
-23.14
-33.51
-40.64
-43.00
-37.10
-20.66
5.26
34.31
57.52
66.91
59.43
38.57
12.07
-11.05
-25.05
-28.24
-22.79
-12.52
-0.75
10.52
20.50
27.78
30.77
27.19
16.16
-1.20
-21.10
-38.10
-47.47
-46.64
-36.82
-21.60
-6.16
5.53
11.81
12.81
9.94
4.16
-3.55
-12.62
-21.46
-28.02
-29.99
-26.61
-18.89
-9.49
-1.81
1.92
0.84
-3.75
-9.76
-14.80
-17.06
-15.86
-11.14
-3.80
5.31
14.30
21.01
23.18
19.81
11.74
1.96
-5.16
-6.28
-0.58
9.30
18.49
22.32
18.58
8.86
-2.65
-11.15
-13.73
-9.40
0.84
15.16
30.83
44.53
52.44
50.95
38.72
17.43
-8.13
-31.82
-47.67
-52.47
-46.67
-33.27
-16.71
-0.95
11.11
18.38
20.34
17.36
10.61
1.90
-6.14
-11.65
-13.42
-12.07
-9.02
-5.95
-3.46
-1.11
1.87
5.92
10.18
13.23
13.58
11.33
7.85
4.88
3.33
2.85
2.26
0.33
-2.39
-4.65
-5.18
-3.93
-2.21
-1.83
-4.01
-8.04
-12.58
-15.95
-17.47
-17.68
-17.22
-16.68
-15.70
-13.60
-9.70
-4.35
1.63
6.83
9.88
10.08
7.66
4.14
1.03
-0.37
-0.01
1.17
1.65
1.04
0.03
-0.37
0.71
2.50
4.00
4.53
4.91
7.04
11.98
19.18
25.56
27.88
24.33
15.85
5.29
-3.96
-9.90
-11.90
-10.19
-5.30
1.94
9.74
15.72
16.85
11.89
2.33
-8.29
-15.72
-17.34
-13.29
-6.49
-0.10
3.37
3.45
1.35
-1.43
-3.47
-4.49
-5.17
-6.81
-10.52
-16.53
-23.63
-29.09
-29.98
-24.29
-13.19
-0.74
7.28
6.88
-1.83
-13.76
-21.18
-18.46
-4.98
13.55
28.83
34.36
28.93
17.08
5.98
1.10
3.25
9.39
14.46
15.51
13.01
9.81
8.66
10.21
12.79
13.53
11.34
7.03
3.09
1.49
2.08
3.04
2.32
-0.70
-5.26
-9.41
-12.19
-13.81
-14.79
-15.21
-13.49
-7.96
1.59
12.49
20.03
20.18
12.51
0.74
-8.99
-11.51
-6.07
3.68
11.52
12.70
5.93
-5.83
-17.46
-24.45
-24.89
-20.34
-14.16
-9.68
-8.46
-9.83
-11.66
-12.15
-11.03
-8.97
-7.66
-8.17
-10.07
-11.80
-11.14
-6.46
2.32
13.26
23.42
29.68
30.69
26.81
19.70
11.29
2.98
-4.39
-10.36
-13.64
-13.24
-8.50
-0.56
7.95
13.65
14.03
9.13
1.10
-6.61
-11.61
-12.72
-10.73
-7.15
-3.02
1.10
4.88
7.67
9.05
8.43
6.12
3.14
1.01
1.18
3.84
8.40
13.15
16.21
15.97
12.04
5.06
-3.33
-10.79
-15.17
-15.34
-12.25
-8.56
-7.34
-10.40
-16.77
-23.17
-25.30
-21.17
-11.70
-0.96
6.35
7.27
2.48
-4.43
-9.04
-8.16
-1.24
9.83
21.35
29.87
32.69
28.96
19.97
8.78
-0.63
-5.47
-4.95
-1.01
3.63
6.90
9.08
11.77
16.06
20.72
22.31
17.80
6.63
-8.28
-21.74
-29.74
-31.17
-27.92
-22.84
-17.89
-12.74
-6.61
0.46
6.64
9.54
7.64
1.80
-4.83
-9.17
-9.48
-6.66
-3.19
-1.29
-1.88
-3.88
-5.67
-5.92
-4.94
-3.86
-3.98
-5.22
-5.49
-2.45
5.45
17.02
28.47
35.09
33.58
23.74
8.92
-5.31
-13.60
-12.50
-2.66
11.59
24.05
29.59
26.11
15.46
2.40
-8.54
-14.95
-17.54
-18.45
-18.97
-17.99
-12.73
-1.34
14.84
30.60
39.75
38.41
27.38
12.00
-1.45
-8.68
-9.34
-6.40
-4.03
-4.71
-8.22
-11.87
-12.45
-7.91
1.52
13.25
23.85
30.37
31.59
28.55
23.62
19.66
18.88
21.88
27.53
34.04
39.17
41.33
39.77
34.86
28.02
21.42
17.23
16.68
19.63
24.60
29.61
32.83
33.10
29.05
18.77
0.37
-26.88
-60.53
-95.06
-122.89
-137.99
-138.33
-126.98
-110.27
-94.41
-82.81
-75.19
-69.11
-62.29
-54.37
-46.99
-41.76
-38.94
-36.66
-32.41
-24.49
-13.18
-0.38
11.57
21.09
27.91
32.00
33.54
32.43
29.26
25.05
21.77
20.99
23.21
27.66
32.63
36.90
39.84
41.62
42.02
40.48
36.38
30.21
24.16
21.28
23.71
30.60
38.27
41.60
37.17
25.33
10.02
-3.23
-10.48
-11.14
-8.40
-6.62
-8.97
-15.54
-23.52
-29.13
-29.29
-23.99
-15.23
-6.70
-1.13
0.55
-0.80
-3.42
-5.91
-8.09
-11.00
-15.21
-20.76
-26.35
-30.16
-30.63
-27.29
-21.20
-14.31
-8.94
-6.47
-6.69
-7.99
-7.84
-4.46
2.41
10.80
17.90
20.82
19.05
13.96
8.14
3.91
1.66
0.80
-0.03
-0.90
-0.97
1.11
5.69
11.77
17.12
19.27
17.00
10.34
1.19
-8.24
-15.94
-20.83
-22.49
-20.79
-15.66
-7.19
3.36
13.72
20.63
21.31
14.72
2.60
-10.92
-21.20
-24.49
-20.05
-9.56
3.82
17.03
28.43
37.39
43.83
46.80
44.99
37.58
25.90
12.99
3.09
-0.64
2.41
9.71
17.03
20.37
17.69
9.74
-0.86
-10.81
-17.56
-19.96
-17.86
-12.26
-4.62
2.90
8.27
9.63
6.36
-0.80
-10.25
-19.84
-27.69
-32.56
-34.38
-33.67
-31.42
-28.34
-24.57
-19.91
-13.61
-5.67
3.35
11.54
16.96
17.72
13.61
6.62
-0.06
-3.25
-1.70
3.28
8.11
9.21
4.98
-2.81
-10.08
-12.88
-9.74
-2.71
4.52
8.79
9.40
8.34
8.36
10.93
14.79
17.46
16.84
12.67
6.38
0.15
-4.59
-7.43
-8.35
-7.14
-3.06
3.61
11.11
16.39
16.67
11.15
1.51
-9.05
-17.38
-21.61
-22.09
-19.87
-16.04
-10.97
-5.10
0.72
5.12
6.56
4.28
-1.47
-9.01
-16.04
-20.20
-19.78
-14.10
-3.84
8.39
19.22
24.91
23.35
14.99
3.04
-7.86
-13.65
-12.34
-5.06
5.37
15.66
23.60
27.84
27.79
23.35
14.90
4.45
-4.88
-9.33
-6.63
2.91
16.30
29.07
37.40
38.93
33.93
23.88
11.11
-2.32
-14.62
-24.24
-29.95
-30.77
-27.05
-19.99
-12.05
-5.52
-2.19
-2.32
-4.56
-6.77
-6.65
-3.62
1.36
5.44
6.02
1.85
-6.11
-14.73
-20.66
-21.32
-16.46
-7.65
2.05
10.23
15.72
18.96
21.09
22.51
22.55
19.65
13.01
3.36
-6.43
-12.77
-13.52
-8.81
-1.66
4.10
5.42
2.17
-3.32
-7.34
-7.03
-2.37
4.55
10.49
13.25
12.52
9.82
6.87
4.70
3.34
1.94
-0.02
-2.72
-5.40
-7.20
-7.17
-5.43
-2.82
-0.73
-0.41
-2.05
-5.15
-8.26
-10.35
-11.17
-11.76
-13.66
-17.85
-24.07
-30.33
-34.55
-35.16
-32.20
-26.50
-19.15
-10.43
-0.19
11.40
23.27
33.17
39.10
39.84
36.28
30.40
24.21
18.74
13.42
7.62
1.12
-4.42
-6.95
-4.88
1.21
8.86
14.88
16.80
14.54
9.32
3.21
-2.44
-7.25
-11.32
-14.63
-16.63
-16.72
-14.12
-9.13
-2.30
5.18
11.93
16.16
16.03
10.92
1.55
-9.02
-17.22
-20.38
-18.45
-14.24
-11.56
-13.14
-18.39
-24.50
-27.71
-26.30
-20.85
-14.00
-8.06
-3.28
1.45
7.52
14.42
20.19
22.60
21.55
19.30
19.05
22.74
28.84
33.13
30.82
20.04
3.03
-14.48
-26.02
-27.66
-19.46
-5.67
7.90
16.34
17.51
12.15
3.30
-5.23
-10.28
-10.33
-6.05
0.76
7.11
10.51
9.74
5.35
-0.58
-5.72
-8.50
-9.30
-9.62
-11.05
-13.58
-15.47
-14.25
-8.47
0.82
10.44
16.49
17.01
12.58
6.42
2.03
0.95
1.89
1.90
-1.13
-7.15
-12.96
-14.77
-10.10
-0.02
11.40
19.58
21.47
17.68
11.31
6.43
5.45
8.12
12.17
14.79
14.16
9.50
1.31
-9.48
-21.21
-31.56
-37.57
-36.68
-28.40
-14.56
0.28
11.41
15.43
11.95
3.23
-6.87
-14.51
-17.49
-15.18
-8.84
-0.40
7.45
12.19
11.94
6.14
-3.80
-15.54
-26.21
-33.69
-36.85
-35.45
-29.71
-20.23
-8.68
2.34
9.64
11.38
8.14
2.89
-0.23
1.48
7.83
15.62
20.92
21.01
16.05
8.51
1.54
-2.63
-3.63
-1.63
2.74
9.40
17.90
26.86
33.51
35.12
30.17
19.15
4.68
-9.41
-19.34
-22.74
-18.94
-8.95
4.62
18.56
29.27
34.16
32.01
23.55
11.05
-2.33
-14.31
-23.81
-30.53
-34.21
-33.57
-27.00
-13.93
3.68
21.08
32.71
34.88
27.84
15.30
2.72
-6.09
-10.14
-11.26
-11.85
-13.40
-15.57
-16.98
-16.98
-15.69
-13.98
-12.45
-10.47
-6.82
-0.86
6.46
12.73
14.78
11.16
2.35
-8.76
-18.23
-22.79
-21.16
-14.72
-6.22
1.00
5.36
6.74
7.19
9.24
14.26
21.85
29.72
35.13
35.84
32.11
25.75
19.61
15.41
12.45
8.40
0.71
-11.17
-25.00
-36.03
-40.26
-36.18
-26.08
-14.93
-6.99
-4.11
-4.69
-5.91
-5.50
-3.67
-2.50
-3.53
-6.77
-9.86
-10.58
-7.96
-3.76
-0.31
0.88
0.51
0.77
2.80
6.00
7.81
6.38
1.76
-3.48
-6.32
-5.11
-0.36
5.41
10.02
12.16
12.28
10.94
8.54
5.13
1.05
-2.27
-3.37
-1.27
2.96
6.72
7.10
2.41
-6.63
-17.19
-25.19
-27.90
-24.45
-16.90
-8.81
-3.60
-2.81
-5.05
-7.05
-5.23
1.21
10.21
17.16
18.13
12.34
3.07
-3.88
-4.11
3.56
15.65
26.51
31.11
27.55
17.68
5.75
-3.64
-8.07
-7.38
-3.49
1.30
5.05
6.73
6.37
4.23
1.01
-3.08
-7.52
-11.58
-14.09
-13.88
-10.36
-4.08
2.77
7.74
8.74
5.58
-0.26
-5.76
-7.64
-4.42
3.44
12.84
19.99
22.14
19.00
12.65
6.56
3.48
3.86
6.49
8.85
9.45
8.04
5.80
4.07
3.34
3.08
1.91
-1.05
-6.03
-12.01
-17.73
-21.71
-23.01
-21.58
-18.02
-13.69
-9.86
-7.79
-7.77
-9.44
-12.01
-14.37
-15.97
-16.57
-16.39
-15.67
-15.13
-14.82
-14.42
-13.07
-9.36
-2.61
7.13
18.25
28.73
36.49
40.76
41.62
39.78
35.88
29.65
21.25
11.29
1.67
-6.06
-10.98
-14.08
-17.14
-21.27
-25.71
-27.69
-24.37
-14.78
-1.37
11.41
19.13
19.78
14.53
6.32
-1.54
-7.42
-10.83
-11.98
-10.92
-8.17
-5.08
-3.58
-5.45
-10.44
-16.48
-19.96
-18.38
-11.85
-3.42
3.40
6.92
7.82
8.79
11.29
14.87
16.91
15.34
10.07
3.79
0.15
1.31
6.93
14.48
21.07
24.59
24.39
20.51
13.04
2.57
-9.67
-20.58
-26.62
-25.38
-17.10
-4.77
7.19
14.56
15.73
11.40
4.52
-2.03
-5.85
-6.34
-4.27
-1.44
0.05
-0.58
-3.04
-5.57
-6.39
-4.45
-0.83
2.25
2.57
-0.56
-5.39
-9.25
-9.81
-6.85
-2.11
1.88
3.39
2.44
0.39
-1.06
-1.20
-0.05
1.89
4.43
7.85
12.09
16.54
19.40
19.09
14.73
7.27
-1.10
-8.00
-11.97
-12.75
-11.09
-8.06
-4.65
-2.17
-1.77
-4.15
-8.96
-14.38
-18.19
-18.87
-16.99
-14.79
-14.71
-17.07
-19.21
-17.15
-8.08
6.85
22.67
32.97
33.70
25.28
12.38
1.28
-4.06
-3.00
1.91
7.53
11.67
14.36
16.39
18.43
20.10
20.44
18.72
14.76
9.47
3.75
-1.63
-6.54
-10.98
-14.30
-15.41
-12.86
-6.54
1.78
8.66
10.98
7.30
-0.91
-10.13
-16.57
-17.66
-13.60
-6.26
2.01
9.69
16.39
21.37
23.38
20.04
10.03
-5.78
-23.59
-38.07
-44.83
-42.50
-33.39
-21.61
-11.06
-3.05
3.00
8.65
14.46
19.11
20.57
17.23
9.45
-1.21
-12.02
-20.91
-26.89
-30.00
-30.94
-30.21
-28.46
-25.71
-22.22
-17.68
-11.78
-4.31
4.50
13.60
21.63
26.93
28.48
25.67
18.99
9.77
0.55
-5.71
-6.86
-2.05
7.25
18.36
28.33
35.24
38.23
37.39
33.09
25.80
16.57
7.04
-0.74
-5.85
-8.86
-11.85
-16.76
-23.53
-29.76
-31.49
-26.44
-15.29
-2.06
8.66
13.89
13.88
11.18
8.51
7.38
6.93
5.63
2.31
-2.90
-8.53
-12.91
-14.61
-13.38
-9.39
-4.03
1.07
3.98
3.27
-1.23
-7.95
-14.02
-16.92
-15.18
-9.65
-2.37
4.09
7.80
8.43
6.70
4.36
3.02
4.42
9.27
17.37
26.67
33.61
34.78
27.71
12.78
-6.59
-24.50
-35.09
-35.12
-25.43
-10.88
2.24
8.41
5.87
-3.44
-14.88
-23.86
-27.08
-23.51
-14.41
-1.89
11.07
21.85
27.91
27.82
21.52
10.84
-1.05
-10.81
-15.77
-15.25
-9.86
-1.18
9.01
19.38
29.27
38.03
44.18
46.05
41.74
30.95
15.45
-0.94
-14.05
-21.82
-25.12
-27.21
-30.84
-36.79
-42.67
-45.32
-42.95
-36.33
-27.99
-19.72
-12.09
-3.95
4.84
13.12
18.21
18.03
13.28
7.05
3.34
4.43
10.21
17.84
24.52
28.62
30.14
30.34
29.82
28.48
25.20
19.15
10.31
0.03
-9.92
-17.96
-23.48
-27.04
-29.01
-29.36
-26.65
-19.84
-9.31
2.63
12.06
15.72
12.53
4.83
-3.37
-8.50
-9.04
-5.79
-0.81
3.83
7.35
9.34
9.94
8.82
5.74
1.05
-3.90
-6.96
-6.84
-3.45
1.46
5.51
6.33
3.40
-2.17
-7.82
-10.65
-9.33
-4.17
2.68
7.93
8.62
3.61
-6.02
-17.33
-26.40
-30.46
-29.01
-24.15
-19.02
-15.97
-15.06
-14.03
-10.40
-2.79
7.22
16.46
21.10
19.14
11.99
3.56
-1.35
0.60
9.88
23.23
35.83
42.86
41.80
33.64
22.11
11.73
5.62
4.22
4.98
4.43
0.38
-6.47
-12.97
-15.63
-12.78
-6.17
-0.16
0.34
-6.81
-19.69
-33.30
-41.99
-42.99
-36.88
-27.05
-16.87
-7.85
1.06
11.05
21.87
30.99
34.76
31.19
21.58
10.50
2.73
0.77
3.24
5.53
2.94
-6.64
-21.31
-36.61
-47.27
-49.54
-42.63
-28.79
-12.29
2.34
11.34
13.30
8.73
0.30
-8.28
-13.59
-13.47
-8.12
0.72
10.34
18.71
24.47
27.44
28.09
27.48
26.68
26.37
27.19
28.65
29.86
29.83
27.79
23.64
17.74
10.99
4.15
-2.00
-6.91
-9.67
-9.47
-5.92
0.32
7.11
12.46
15.01
15.39
14.93
14.84
15.03
14.44
12.04
7.89
3.85
1.73
2.25
3.69
3.34
-0.95
-9.22
-18.79
-26.21
-29.16
-27.63
-23.66
-19.84
-17.55
-16.54
-15.81
-14.16
-11.18
-7.47
-4.41
-3.56
-5.99
-11.59
-18.92
-25.62
-28.87
-26.95
-20.01
-10.27
-0.95
5.10
6.76
5.05
1.88
-0.33
-0.30
2.10
6.18
10.63
14.02
15.38
14.15
10.22
4.26
-2.61
-9.05
-13.71
-16.29
-16.91
-16.09
-14.28
-11.95
-9.24
-6.84
-5.02
-4.10
-3.67
-3.09
-1.34
1.90
6.45
11.68
16.30
19.34
20.34
19.32
16.80
13.71
11.05
9.74
10.11
11.34
11.88
10.18
5.68
-0.46
-5.95
-8.64
-7.63
-3.91
0.20
2.57
2.50
0.81
-0.55
-0.40
1.75
4.84
7.66
9.36
10.34
11.29
12.44
13.29
12.06
7.44
-0.71
-9.90
-16.68
-17.78
-12.37
-2.90
6.06
9.94
6.95
-1.44
-11.22
-18.06
-20.06
-18.62
-17.39
-19.13
-24.25
-29.62
-30.76
-24.42
-11.07
4.99
18.14
24.13
22.53
16.11
9.74
7.11
9.35
14.67
19.57
20.92
17.19
9.49
0.19
-7.39
-11.04
-10.42
-7.25
-4.28
-3.52
-5.77
-9.92
-14.29
-16.96
-17.09
-14.90
-11.03
-6.27
-1.42
2.61
5.46
7.10
7.98
8.24
7.79
6.48
4.15
1.81
0.72
2.26
6.50
12.12
16.66
17.71
14.07
6.02
-4.37
-14.37
-20.66
-20.76
-13.74
-1.11
13.25
25.17
31.40
31.41
27.30
22.47
19.16
17.84
17.27
15.45
11.31
4.90
-2.35
-9.00
-13.42
-14.60
-12.38
-7.90
-3.74
-2.67
-6.74
-15.32
-25.02
-31.09
-29.98
-21.47
-8.83
2.97
9.96
10.87
7.85
4.31
2.75
3.44
4.78
4.71
2.04
-2.14
-5.69
-6.60
-4.28
-0.16
3.45
4.56
3.24
0.90
-0.30
0.69
3.45
6.13
6.93
5.29
1.92
-1.34
-3.23
-3.72
-3.71
-4.55
-6.93
-10.37
-13.47
-15.20
-14.99
-13.65
-12.38
-12.64
-14.77
-17.54
-18.85
-16.49
-9.59
0.53
10.89
18.28
21.06
19.64
16.41
13.41
11.80
10.97
9.66
7.00
3.48
0.29
-1.18
-0.15
2.73
5.98
8.27
9.04
8.65
8.18
8.18
7.87
5.57
-0.30
-9.25
-18.86
-25.29
-25.43
-19.13
-9.35
-0.86
2.67
0.32
-5.38
-10.68
-12.65
-10.65
-6.47
-2.18
0.69
1.98
2.23
2.19
1.96
1.48
0.69
-0.21
-0.57
0.55
3.84
9.04
15.43
21.55
25.87
27.13
24.63
18.68
10.38
1.46
-6.38
-12.29
-16.36
-19.24
-21.68
-23.80
-24.86
-23.64
-18.94
-10.91
-1.35
6.86
11.45
12.11
11.12
12.26
18.45
29.92
43.39
53.38
54.58
44.78
25.90
2.88
-18.06
-32.42
-38.75
-38.62
-35.07
-31.20
-28.65
-27.42
-26.54
-24.96
-22.51
-19.40
-16.46
-13.97
-12.12
-10.96
-10.70
-11.58
-13.28
-14.96
-15.04
-12.83
-8.88
-5.30
-4.39
-7.09
-12.15
-16.46
-16.85
-11.38
-0.49
13.47
27.83
40.53
50.85
58.52
63.31
63.82
58.46
46.33
28.63
8.65
-8.67
-18.68
-19.39
-11.88
-0.30
10.40
16.74
18.09
15.82
11.98
7.97
3.67
-0.99
-5.95
-10.38
-13.37
-14.78
-15.61
-17.18
-19.67
-22.14
-22.23
-18.33
-10.61
-1.18
6.68
10.58
10.13
7.04
3.66
1.99
2.21
3.30
3.89
2.92
0.41
-2.84
-5.76
-7.54
-7.32
-4.69
0.41
7.47
14.95
21.55
26.18
28.69
29.10
27.42
22.97
15.08
4.48
-7.02
-16.14
-20.41
-19.21
-14.28
-8.62
-5.05
-4.56
-6.12
-8.37
-9.97
-11.01
-12.23
-14.36
-17.18
-19.96
-21.43
-20.55
-17.19
-11.68
-5.43
0.17
4.12
5.98
6.33
5.90
5.38
4.60
3.51
2.11
1.05
1.29
3.18
6.05
8.11
7.76
4.40
-0.50
-4.82
-6.32
-4.14
0.67
6.12
9.81
10.62
8.11
3.23
-3.00
-9.25
-14.45
-17.78
-18.39
-16.03
-10.75
-3.25
5.02
12.24
16.52
17.15
14.53
10.15
5.66
2.42
0.40
-0.71
-1.21
-1.17
-0.05
2.21
5.11
7.07
6.78
3.43
-2.11
-8.12
-12.41
-13.23
-10.38
-4.27
3.67
12.15
19.45
24.42
26.04
24.12
19.15
12.02
4.38
-2.44
-7.61
-11.16
-13.11
-14.01
-14.03
-13.06
-11.73
-10.73
-11.23
-14.05
-19.53
-26.56
-33.20
-37.17
-36.31
-29.82
-17.91
-2.61
13.62
28.12
38.56
43.31
41.53
34.02
22.63
10.87
1.87
-2.56
-3.00
-2.37
-3.78
-8.88
-16.15
-22.37
-24.06
-20.43
-13.89
-8.41
-7.35
-11.09
-17.57
-23.32
-26.13
-25.05
-19.93
-10.86
2.13
17.46
32.05
41.13
40.98
30.58
13.34
-4.85
-17.83
-22.03
-18.16
-9.52
-0.30
6.80
10.85
12.26
11.63
9.52
6.51
3.63
2.34
3.91
8.38
14.34
20.04
23.95
25.85
26.74
27.50
27.82
26.17
20.45
9.82
-4.35
-18.54
-28.95
-32.99
-31.62
-27.76
-25.02
-25.31
-27.73
-29.71
-28.38
-22.68
-12.97
-1.26
10.19
18.78
23.04
22.54
18.54
13.31
9.49
8.99
11.45
15.26
18.14
18.77
17.59
16.10
15.55
15.65
14.96
11.89
6.42
-0.14
-5.71
-8.78
-9.70
-9.83
-11.07
-14.43
-19.81
-25.43
-28.96
-28.39
-22.74
-13.32
-2.49
6.39
11.32
11.66
8.71
4.37
-0.04
-3.97
-7.85
-11.81
-15.18
-16.74
-15.35
-10.89
-4.53
1.68
5.91
7.30
6.84
6.16
6.86
9.36
12.84
15.96
17.72
18.07
17.36
16.08
13.96
10.31
5.17
-0.52
-4.66
-6.03
-4.49
-1.61
0.88
2.09
2.56
3.35
4.62
5.53
4.74
1.80
-2.80
-7.85
-12.85
-17.63
-22.21
-25.76
-26.22
-21.63
-11.60
1.52
13.74
21.40
23.15
20.26
15.29
10.55
6.93
4.57
3.45
3.96
6.54
10.71
15.01
17.54
17.54
15.54
13.20
12.17
12.89
14.16
14.16
11.97
7.86
3.62
0.59
-0.78
-1.93
-4.57
-10.10
-18.38
-27.66
-35.46
-39.70
-39.45
-35.01
-28.00
-20.43
-14.01
-9.84
-7.73
-7.09
-7.40
-8.71
-11.41
-15.85
-21.05
-24.55
-23.47
-15.98
-2.76
13.20
27.20
35.25
34.98
26.54
12.47
-3.27
-16.02
-22.14
-19.82
-10.23
3.09
15.58
23.67
26.28
24.32
20.08
14.80
8.51
0.76
-8.01
-16.02
-20.49
-19.84
-14.64
-7.53
-2.23
-0.82
-3.25
-7.27
-9.86
-8.87
-4.14
2.12
7.12
8.28
5.45
0.87
-1.41
1.67
10.61
22.69
33.02
37.63
35.22
27.74
18.68
10.95
5.47
1.39
-2.43
-6.23
-8.42
-7.65
-3.45
2.67
8.34
11.36
10.35
5.39
-2.99
-13.70
-25.34
-35.36
-41.11
-40.65
-33.68
-22.30
-9.63
0.95
7.73
10.45
10.33
8.93
7.77
8.15
10.82
16.03
22.17
26.64
26.39
19.83
7.56
-7.44
-21.14
-30.50
-33.98
-32.11
-25.81
-16.36
-5.24
5.32
12.34
13.19
6.62
-5.33
-18.63
-28.12
-30.26
-24.65
-13.83
-1.98
7.39
12.56
14.70
15.84
17.93
21.24
24.41
25.71
24.13
20.51
16.58
13.86
12.17
10.39
7.03
1.98
-2.85
-5.12
-3.56
0.32
3.40
2.55
-3.01
-10.49
-15.20
-13.03
-3.85
8.92
19.32
22.59
17.14
5.48
-7.53
-17.52
-21.84
-20.55
-15.07
-7.35
1.66
11.30
20.82
28.70
32.78
31.45
24.23
13.01
0.84
-9.12
-14.86
-16.09
-14.26
-11.96
-10.87
-11.73
-13.72
-14.93
-13.21
-7.17
2.99
15.17
25.35
29.73
25.95
14.99
0.93
-10.75
-15.87
-13.90
-7.40
-1.03
1.76
-0.37
-5.87
-12.04
-17.17
-21.11
-25.12
-30.07
-35.46
-39.07
-38.87
-34.17
-26.84
-20.69
-18.76
-21.83
-27.42
-30.92
-27.80
-16.77
-0.10
16.99
29.25
33.91
31.90
27.02
23.23
23.12
26.17
29.80
30.76
27.01
18.91
8.82
-0.20
-5.96
-7.82
-7.16
-5.99
-5.55
-6.09
-6.40
-5.40
-2.57
1.15
4.15
4.77
2.88
-0.36
-3.08
-3.68
-2.06
1.02
3.80
5.42
5.65
5.47
6.25
8.84
13.42
18.94
24.28
27.57
27.57
23.47
15.64
5.66
-4.61
-12.97
-18.30
-20.16
-18.98
-15.44
-10.09
-3.93
1.98
6.04
7.28
4.86
-0.69
-8.07
-15.11
-19.80
-20.85
-17.69
-11.38
-3.35
4.11
9.35
11.20
10.01
7.06
4.12
2.96
4.09
7.18
10.85
13.57
14.27
13.13
11.58
10.96
11.94
13.40
13.44
10.56
5.31
0.10
-2.14
0.35
6.57
13.45
17.01
15.16
8.22
-0.99
-8.97
-13.31
-13.97
-13.25
-13.99
-18.31
-25.54
-33.03
-37.08
-35.27
-27.83
-17.73
-9.01
-3.96
-2.88
-3.71
-4.03
-2.36
0.97
4.77
7.54
8.09
6.27
2.56
-1.46
-4.12
-4.08
-1.47
1.47
1.54
-3.31
-12.16
-21.64
-26.62
-23.82
-13.15
1.89
15.89
24.60
26.14
21.69
13.90
5.53
-2.30
-9.79
-17.06
-23.36
-26.21
-22.47
-10.26
8.70
29.59
46.01
53.55
52.03
44.31
34.45
24.51
14.17
2.41
-9.98
-20.08
-24.20
-20.68
-11.83
-2.46
2.44
0.81
-5.71
-13.24
-17.94
-18.11
-14.02
-7.28
0.51
7.70
12.79
14.21
11.12
3.74
-6.40
-16.29
-22.79
-23.40
-17.35
-5.71
8.77
21.96
30.00
30.18
22.20
8.30
-6.65
-17.43
-19.75
-12.87
0.31
14.35
23.40
24.16
17.03
6.07
-3.74
-8.73
-8.04
-3.53
2.10
6.52
8.99
9.32
7.83
4.48
-0.82
-7.25
-13.37
-17.49
-18.26
-15.09
-8.58
-0.34
7.74
13.57
15.50
12.43
4.78
-5.73
-16.23
-24.23
-27.76
-25.89
-18.90
-7.68
5.77
18.77
27.86
30.04
24.26
12.39
-1.10
-10.91
-13.58
-9.53
-2.75
1.10
-1.77
-11.16
-22.68
-30.61
-30.87
-23.10
-10.66
1.62
9.54
11.73
9.48
5.78
3.06
2.30
2.92
3.10
1.28
-2.89
-7.98
-11.79
-11.98
-7.50
1.33
12.76
24.29
34.00
40.48
43.31
42.60
38.71
32.17
23.69
14.63
6.35
0.16
-3.49
-4.68
-3.81
-1.78
0.69
2.19
0.95
-4.95
-16.16
-31.19
-46.25
-56.26
-57.06
-47.30
-29.83
-9.78
6.89
16.35
17.25
11.26
1.58
-8.37
-15.30
-17.06
-12.95
-4.54
5.03
12.13
14.39
11.77
6.38
1.01
-2.97
-5.88
-9.07
-13.78
-19.45
-23.62
-23.52
-17.91
-8.20
2.18
9.47
11.52
9.00
4.85
2.19
2.92
6.98
12.76
17.61
19.62
17.96
13.44
7.77
2.99
0.86
1.70
4.83
8.13
9.46
7.42
2.62
-2.74
-6.16
-6.08
-2.94
1.43
4.65
5.88
5.50
4.69
3.96
2.94
0.85
-2.79
-7.38
-11.68
-14.71
-17.01
-19.79
-24.31
-30.16
-34.84
-34.96
-27.55
-12.81
6.40
24.93
37.84
42.30
38.46
29.08
17.95
8.93
4.19
4.31
8.36
14.70
21.53
27.11
29.99
29.08
24.80
18.75
13.81
12.22
14.06
16.97
17.08
12.03
2.12
-8.79
-16.41
-17.77
-13.81
-8.11
-4.24
-3.66
-4.26
-2.88
2.72
11.22
19.15
22.47
19.07
10.19
-1.32
-11.96
-19.59
-23.14
-22.71
-18.60
-11.86
-4.39
1.67
4.12
2.50
-2.24
-8.04
-13.21
-17.57
-22.07
-27.99
-35.37
-43.25
-49.44
-52.40
-50.85
-44.61
-34.16
-20.57
-5.98
7.07
15.79
19.20
18.20
15.46
14.27
16.38
21.08
25.72
27.44
25.06
19.72
13.90
9.48
6.68
4.07
-0.12
-6.72
-14.93
-22.44
-26.71
-26.82
-23.64
-19.54
-17.02
-17.19
-19.28
-20.79
-19.61
-14.81
-7.16
1.51
8.90
13.16
13.68
10.76
5.47
-1.02
-6.67
-9.36
-6.81
1.46
13.76
26.10
33.92
34.60
28.48
19.15
10.36
4.61
1.52
-0.31
-1.75
-2.31
-0.52
3.98
9.75
13.00
10.42
1.30
-11.15
-21.12
-23.42
-15.54
0.35
19.23
35.06
43.82
44.35
38.04
27.75
15.84
4.09
-7.07
-17.36
-26.27
-32.72
-35.27
-33.20
-26.52
-17.04
-6.86
1.84
8.45
13.37
17.54
20.96
22.41
20.53
14.61
6.26
-1.78
-6.49
-6.08
-1.24
6.07
13.01
17.76
19.29
18.00
14.67
10.56
7.36
6.46
8.87
13.82
19.32
22.26
20.23
12.76
1.75
-9.21
-16.59
-17.79
-12.87
-4.24
4.43
10.09
11.61
10.71
10.31
12.50
16.86
20.13
18.44
9.87
-3.95
-18.38
-28.59
-32.16
-30.34
-26.78
-24.99
-26.43
-29.62
-31.67
-29.93
-23.96
-14.98
-5.73
1.12
3.74
2.17
-1.92
-6.33
-8.77
-8.58
-6.63
-5.16
-6.21
-10.63
-16.89
-22.28
-23.75
-19.85
-11.26
-0.16
10.29
17.63
20.65
19.52
15.13
9.00
2.50
-2.89
-5.98
-6.08
-2.81
3.23
10.40
16.20
17.60
12.81
1.58
-13.56
-28.12
-37.10
-36.87
-26.93
-9.81
9.63
26.61
37.75
42.34
41.17
35.98
27.97
17.76
6.27
-4.75
-12.55
-14.69
-9.99
0.08
12.01
20.99
23.18
17.37
5.32
-8.27
-18.32
-21.01
-16.06
-6.81
1.55
4.44
0.59
-7.44
-14.70
-17.00
-13.11
-5.84
-0.24
-0.67
-8.11
-19.47
-29.52
-33.12
-27.60
-13.81
4.19
21.43
33.81
39.14
37.67
31.57
24.03
17.85
14.45
13.56
13.56
12.65
9.82
5.34
0.44
-3.54
-6.27
-8.51
-11.63
-16.52
-22.70
-28.60
-31.96
-31.11
-26.12
-18.67
-10.97
-4.86
-1.16
0.57
1.12
1.43
1.73
2.42
3.65
5.94
9.53
13.84
17.74
19.89
19.75
17.91
15.95
15.24
16.28
17.96
18.63
17.06
12.72
6.39
-0.58
-6.66
-10.35
-10.75
-7.70
-2.36
2.90
5.01
2.23
-5.14
-14.13
-20.55
-21.11
-15.17
-5.20
4.76
10.72
11.06
6.46
-0.36
-6.37
-9.43
-8.66
-4.91
0.17
4.59
6.93
6.12
2.37
-3.34
-9.26
-13.45
-14.52
-12.26
-7.76
-3.14
-0.83
-2.30
-7.61
-15.18
-22.18
-26.08
-25.26
-20.50
-14.06
-9.55
-9.74
-15.27
-24.14
-32.14
-35.08
-30.42
-19.09
-4.88
7.32
14.10
14.69
11.13
6.72
4.10
4.39
6.71
9.46
10.85
10.40
8.69
7.26
8.14
12.56
20.88
31.52
41.61
47.54
46.52
37.98
23.91
8.86
-3.02
-9.33
-10.06
-6.84
-1.51
5.11
12.79
20.40
25.87
26.13
19.54
6.76
-8.21
-20.31
-25.47
-22.48
-13.29
-0.97
11.18
20.93
26.52
26.47
20.16
8.61
-4.56
-14.83
-18.25
-14.02
-4.31
6.44
14.11
17.07
15.88
12.69
9.13
5.81
1.66
-4.03
-10.84
-17.23
-21.05
-20.98
-16.99
-10.89
-4.41
0.59
2.98
2.00
-3.26
-12.60
-24.79
-36.51
-43.94
-43.78
-35.65
-22.45
-8.86
0.60
4.24
3.03
0.24
-1.60
-1.18
1.14
4.42
8.06
11.52
14.51
15.90
14.85
11.16
6.85
4.93
8.22
17.30
28.98
38.42
40.54
33.71
20.20
5.16
-6.11
-11.27
-11.55
-11.30
-14.42
-22.94
-35.18
-47.23
-54.64
-54.60
-46.96
-33.36
-16.38
1.98
19.85
36.03
49.13
57.50
59.36
53.82
42.14
27.07
12.90
2.97
-0.93
0.25
3.58
5.77
4.00
-2.67
-13.65
-26.56
-38.32
-45.57
-45.55
-37.20
-21.84
-3.49
12.62
21.34
20.55
11.56
-1.24
-13.20
-21.72
-26.59
-29.57
-31.86
-32.88
-29.96
-20.97
-6.17
11.03
24.83
30.35
26.07
14.97
2.22
-6.97
-10.16
-7.94
-3.04
1.73
4.91
6.07
5.47
3.03
-1.07
-6.40
-11.33
-13.57
-11.59
-4.99
4.51
14.39
22.37
27.58
30.22
30.86
29.88
26.97
22.21
15.98
9.22
2.83
-2.75
-7.50
-11.14
-12.53
-10.22
-3.38
6.76
17.02
23.42
23.43
17.08
6.56
-4.88
-15.16
-23.39
-30.16
-35.73
-39.92
-42.04
-41.30
-37.37
-30.31
-21.09
-10.84
-1.78
3.90
4.78
1.08
-4.94
-9.65
-9.98
-5.32
2.81
11.21
17.32
20.12
20.66
20.64
21.32
22.98
25.18
27.41
29.61
32.11
34.83
36.89
37.17
34.27
27.85
18.44
7.67
-2.67
-11.13
-17.11
-21.02
-23.30
-24.63
-25.08
-24.74
-23.77
-22.66
-21.89
-21.54
-20.91
-18.74
-14.37
-8.38
-2.76
0.37
-0.17
-3.52
-7.04
-8.25
-6.12
-2.07
1.65
3.23
2.64
1.48
1.54
3.78
7.25
9.93
9.61
5.80
-0.50
-6.74
-9.96
-8.00
-0.37
10.99
22.66
30.77
33.06
29.69
23.37
17.67
14.92
15.31
17.10
18.46
18.24
16.60
14.16
10.81
5.83
-1.64
-11.32
-21.14
-27.59
-27.74
-20.94
-9.50
2.12
9.44
10.16
5.62
-1.06
-6.50
-9.49
-10.74
-12.28
-15.43
-19.78
-23.61
-25.35
-24.73
-22.71
-20.69
-18.99
-16.66
-12.60
-6.60
0.03
5.29
8.11
9.36
10.73
13.42
16.61
18.10
15.75
9.40
1.46
-4.62
-6.38
-4.07
-0.50
1.22
-0.49
-4.27
-6.81
-4.80
2.79
14.40
26.27
34.64
36.89
32.25
22.03
8.53
-5.41
-17.30
-25.22
-28.67
-28.00
-24.54
-19.83
-15.12
-11.60
-9.82
-10.32
-12.89
-16.59
-19.59
-19.57
-14.68
-5.02
7.09
18.08
24.87
26.88
25.56
23.72
22.83
22.14
19.55
12.91
2.45
-9.39
-18.96
-23.91
-24.34
-22.45
-21.17
-21.41
-22.46
-22.16
-19.17
-13.90
-8.19
-4.03
-1.80
-0.59
1.71
6.21
12.47
18.09
20.71
19.24
14.67
9.67
6.16
4.96
4.61
3.16
-0.61
-6.14
-11.16
-13.30
-10.65
-3.62
6.18
16.17
24.10
29.05
30.90
30.58
28.50
25.18
20.42
14.10
6.23
-2.10
-8.92
-12.34
-10.83
-4.85
3.92
12.83
19.84
23.61
23.68
19.98
12.02
0.27
-13.95
-27.88
-38.35
-42.77
-40.64
-33.73
-24.86
-16.75
-10.12
-3.94
3.91
14.91
28.72
43.01
54.07
58.99
56.37
47.82
36.44
25.95
18.48
13.90
10.20
4.67
-4.38
-16.99
-31.20
-44.36
-53.08
-54.41
-46.30
-28.64
-4.43
20.91
40.47
48.99
44.47
29.23
7.92
-14.43
-34.14
-48.98
-57.05
-56.81
-47.36
-30.68
-11.67
2.92
7.92
2.64
-9.16
-20.91
-27.50
-26.98
-21.24
-13.24
-4.97
3.59
13.41
24.04
33.21
36.85
32.19
19.06
0.62
-18.57
-34.75
-46.36
-54.09
-58.85
-60.80
-58.17
-49.03
-32.55
-10.62
12.51
32.46
46.14
53.19
54.45
51.46
44.86
34.87
22.15
8.32
-3.88
-12.06
-14.34
-10.66
-1.78
10.45
23.63
35.09
42.09
43.01
37.75
28.83
19.60
13.29
10.96
11.41
11.93
9.47
2.73
-8.27
-21.60
-34.52
-43.81
-46.81
-42.33
-31.49
-18.06
-6.69
-1.72
-4.41
-12.60
-21.33
-25.64
-23.36
-15.97
-8.12
-3.92
-5.25
-10.46
-15.99
-18.41
-16.26
-10.46
-2.27
7.36
18.69
31.65
45.30
56.98
63.09
60.87
49.49
31.37
11.20
-5.15
-13.01
-10.12
2.10
19.24
35.54
45.64
46.68
38.19
22.09
1.16
-21.13
-41.08
-54.75
-58.68
-51.90
-36.70
-19.01
-5.57
-1.11
-5.90
-16.02
-25.36
-28.50
-23.34
-11.20
3.27
14.89
19.57
16.28
7.23
-3.52
-12.04
-16.74
-18.55
-20.53
-25.18
-33.04
-41.99
-48.30
-48.60
-41.32
-27.78
-10.86
5.42
18.01
25.31
27.66
27.11
26.23
27.36
31.27
37.17
42.89
46.87
48.35
47.22
43.66
37.24
28.04
16.65
4.99
-5.02
-12.21
-17.12
-21.35
-25.74
-29.54
-30.44
-27.07
-20.38
-14.39
-13.45
-18.95
-27.88
-33.53
-30.03
-15.51
6.01
27.33
41.63
46.06
41.91
33.07
23.01
13.05
3.26
-6.65
-15.51
-21.18
-21.59
-15.83
-5.33
6.87
16.44
19.65
14.24
0.90
-17.05
-34.71
-47.42
-52.63
-49.98
-41.13
-28.20
-13.05
2.60
16.74
27.13
32.21
32.31
30.15
28.87
30.65
34.24
35.81
30.76
16.87
-3.66
-25.26
-41.37
-48.04
-45.25
-36.52
-26.51
-17.91
-10.73
-2.85
7.30
19.72
31.76
39.95
41.63
36.75
27.77
17.83
9.45
3.12
-1.86
-6.70
-10.97
-13.12
-11.73
-6.45
0.66
6.50
8.19
4.79
-2.48
-10.57
-16.41
-17.92
-14.81
-8.49
-0.78
6.37
11.74
14.99
16.59
17.58
18.53
19.55
19.17
15.57
6.84
-6.61
-22.16
-35.37
-42.01
-40.10
-30.57
-17.31
-4.67
4.25
9.12
11.80
14.60
18.79
23.63
27.04
26.82
22.73
15.96
9.35
5.14
4.07
4.88
5.06
2.41
-3.55
-11.20
-17.67
-20.57
-19.29
-15.12
-9.97
-5.21
-0.44
5.04
11.62
17.93
21.30
18.95
9.90
-3.60
-17.21
-25.92
-26.61
-19.64
-8.39
2.63
9.91
12.45
11.71
9.72
7.88
5.65
1.79
-4.27
-10.78
-14.70
-13.41
-6.78
1.73
7.29
6.42
-0.20
-8.42
-12.96
-10.85
-3.54
4.57
8.68
7.20
1.75
-3.92
-6.38
-4.52
0.37
6.12
11.31
15.35
18.97
22.76
26.88
30.19
31.27
28.72
21.76
11.09
-1.38
-12.59
-19.80
-21.79
-19.76
-16.88
-16.81
-21.70
-30.69
-40.65
-47.49
-48.33
-42.45
-31.46
-18.07
-5.01
5.34
11.61
12.76
8.71
0.27
-10.23
-19.32
-23.91
-22.19
-14.88
-4.44
5.75
13.47
18.30
20.83
22.39
23.86
25.50
26.78
26.88
24.43
18.84
10.35
0.35
-8.60
-13.73
-13.17
-7.45
1.22
9.67
15.86
19.15
20.00
19.28
16.82
12.60
6.70
0.29
-5.34
-9.25
-11.57
-12.94
-13.39
-11.97
-7.45
0.17
8.80
14.61
14.13
6.06
-7.28
-20.99
-30.30
-32.04
-26.33
-15.27
-2.00
11.06
22.63
31.88
38.34
41.03
39.25
32.29
20.67
6.08
-8.61
-20.19
-26.25
-26.11
-21.68
-15.76
-11.17
-9.14
-9.46
-10.66
-11.34
-11.04
-9.92
-8.89
-8.14
-8.20
-9.18
-11.12
-13.93
-16.71
-17.98
-16.14
-11.13
-4.08
2.50
6.13
5.81
2.04
-3.09
-7.38
-8.75
-6.65
-0.96
7.20
16.02
23.19
26.43
24.81
19.49
13.98
11.91
15.50
23.61
32.24
36.80
34.70
27.33
18.26
11.28
7.74
6.61
5.49
3.25
1.07
1.20
5.03
11.02
15.27
13.56
4.79
-8.15
-19.49
-23.88
-19.69
-9.29
2.26
10.35
12.34
8.60
0.94
-8.82
-19.37
-30.16
-39.95
-46.79
-47.90
-41.62
-28.61
-12.55
1.20
7.84
5.11
-5.00
-17.35
-25.79
-25.87
-17.12
-3.17
9.89
16.98
15.68
7.96
-1.70
-7.96
-7.89
-1.74
7.21
14.42
16.90
14.00
7.70
0.71
-5.07
-9.52
-13.81
-18.00
-20.93
-19.98
-13.21
-0.80
13.76
25.63
30.59
27.35
18.55
9.06
3.67
4.39
10.16
17.64
23.64
26.62
26.26
23.45
18.41
11.48
2.89
-5.84
-12.34
-14.66
-12.59
-8.43
-5.68
-7.41
-13.70
-21.93
-28.08
-29.37
-25.68
-19.06
-12.50
-7.56
-4.36
-1.76
1.17
4.96
9.38
14.04
19.10
24.24
29.01
31.71
31.17
26.92
19.95
12.07
4.99
-0.55
-5.23
-9.68
-14.15
-17.70
-18.70
-16.11
-10.26
-2.75
4.32
9.14
11.55
12.06
11.72
10.90
9.24
5.91
0.02
-8.56
-19.02
-29.00
-35.67
-36.33
-29.82
-17.86
-4.47
5.55
9.19
6.17
-0.65
-7.39
-10.76
-10.18
-7.31
-4.47
-3.32
-3.89
-5.29
-6.40
-6.95
-6.85
-6.09
-4.24
-0.40
6.00
14.65
24.19
32.97
39.25
41.87
40.06
33.77
23.88
11.81
-0.21
-10.25
-16.85
-20.10
-21.17
-21.68
-22.96
-25.08
-27.11
-26.80
-22.28
-12.64
1.01
15.37
26.52
31.28
28.71
20.54
10.97
4.20
2.74
6.17
12.12
17.39
19.70
18.68
14.99
10.11
4.88
-0.29
-5.41
-10.42
-14.52
-16.74
-16.23
-13.52
-9.89
-7.49
-7.89
-10.86
-14.43
-15.80
-13.14
-6.52
1.39
6.94
7.09
1.75
-6.48
-13.92
-17.60
-16.93
-13.25
-9.28
-6.67
-5.54
-5.01
-4.01
-2.38
-0.48
0.71
0.99
0.85
1.43
3.27
6.08
8.81
10.13
9.70
7.90
6.00
4.59
3.97
3.43
2.55
1.27
-0.11
-1.23
-2.50
-4.18
-6.63
-9.07
-10.38
-9.03
-4.64
1.61
7.40
10.21
9.13
4.90
-0.35
-4.42
-5.90
-4.75
-2.03
1.10
3.48
4.78
4.75
3.95
2.91
2.29
2.41
3.17
4.41
5.61
7.07
8.70
10.87
13.21
14.79
14.63
11.76
6.44
-0.63
-7.47
-12.70
-15.26
-15.12
-13.09
-9.89
-6.11
-1.68
3.07
8.01
12.03
13.94
12.70
8.19
1.75
-4.45
-7.77
-7.18
-2.96
2.41
6.32
6.34
1.39
-7.79
-19.48
-30.77
-39.01
-41.68
-37.81
-27.72
-13.31
2.39
16.27
25.46
28.49
25.14
16.72
5.49
-5.69
-13.72
-16.78
-14.21
-7.71
0.12
6.10
8.78
8.60
7.80
9.17
13.92
21.28
28.20
31.57
29.60
23.09
14.53
6.82
2.15
0.79
2.15
4.68
7.30
8.93
8.71
5.95
0.62
-6.13
-12.12
-14.66
-12.77
-7.63
-2.14
0.65
-0.44
-4.17
-7.51
-8.28
-5.86
-1.88
1.38
2.54
1.74
0.43
-0.23
0.02
0.13
-1.06
-4.24
-9.07
-13.99
-17.21
-16.97
-12.85
-5.94
1.67
7.54
9.98
9.12
6.31
3.24
1.40
0.70
0.27
-1.26
-4.31
-8.58
-12.78
-15.59
-16.35
-14.80
-11.67
-7.81
-4.35
-1.95
-0.82
-0.47
0.29
2.55
7.00
13.27
20.07
25.51
27.53
24.39
15.35
0.67
-17.31
-34.26
-45.64
-47.72
-40.04
-25.85
-11.14
-1.79
-0.37
-4.96
-9.69
-8.90
0.15
15.01
29.87
39.05
40.06
35.02
28.20
23.75
22.65
23.17
22.24
17.92
10.49
2.68
-2.21
-2.45
1.64
7.64
12.66
14.84
14.00
11.53
8.91
6.86
4.24
-0.12
-7.06
-15.43
-23.01
-27.22
-26.49
-21.60
-14.37
-7.15
-1.49
1.59
1.62
-1.83
-8.69
-17.68
-26.68
-32.76
-33.92
-29.57
-21.31
-11.61
-3.01
2.64
5.12
4.93
3.01
0.53
-1.06
-0.68
2.25
7.24
12.25
14.98
13.40
7.48
-1.02
-9.02
-13.59
-13.68
-10.50
-6.79
-5.02
-6.11
-8.30
-8.78
-5.07
3.23
13.81
23.01
27.32
25.75
19.41
11.15
3.16
-3.73
-9.87
-15.54
-19.98
-21.53
-18.47
-10.62
0.35
11.50
19.99
24.65
25.73
24.61
22.04
18.17
12.40
5.17
-2.19
-7.73
-9.96
-9.25
-7.07
-5.44
-5.36
-6.51
-7.32
-6.52
-4.01
-0.64
2.09
3.69
3.89
3.15
1.12
-2.54
-8.04
-14.16
-18.36
-17.90
-11.34
0.25
13.53
24.68
30.83
31.68
28.44
23.35
17.85
12.58
7.56
3.07
0.13
-0.68
0.74
3.12
4.69
3.50
-1.01
-8.32
-16.34
-22.66
-25.44
-23.76
-18.29
-10.47
-2.61
3.33
5.30
2.42
-4.68
-13.88
-21.41
-24.04
-20.16
-10.98
0.30
9.74
14.52
13.76
8.68
1.48
-5.65
-11.02
-13.61
-12.86
-8.98
-2.94
3.28
7.50
8.67
6.92
4.08
2.16
2.37
4.59
7.57
9.94
10.67
9.85
7.83
5.33
3.09
1.66
1.11
0.67
-0.50
-3.56
-8.49
-14.64
-19.81
-21.83
-18.79
-10.54
1.65
15.36
27.26
34.77
36.11
31.27
21.63
9.95
-0.86
-8.54
-11.98
-11.72
-8.91
-4.73
0.35
6.37
13.34
20.59
26.41
28.74
25.84
17.76
5.84
-7.42
-19.39
-27.89
-31.30
-29.11
-21.66
-10.72
1.34
11.02
15.89
15.35
10.89
5.43
1.42
-0.47
-1.71
-3.91
-7.95
-12.73
-16.29
-17.42
-16.45
-14.85
-13.42
-11.83
-8.31
-1.58
7.73
16.90
22.18
21.26
14.36
4.94
-2.88
-5.61
-2.48
5.12
14.36
22.35
27.30
28.20
25.05
18.06
7.94
-4.15
-15.89
-24.31
-27.11
-23.60
-15.80
-7.62
-3.11
-3.76
-8.23
-13.06
-14.69
-12.18
-6.94
-2.25
-0.66
-3.03
-7.72
-12.50
-15.63
-16.79
-16.88
-16.77
-16.64
-15.86
-13.29
-8.29
-1.14
6.71
13.38
17.10
17.60
15.35
11.95
8.96
7.27
6.72
6.66
6.28
5.21
3.89
2.90
2.75
3.36
3.97
3.82
2.10
-1.00
-4.93
-8.34
-10.26
-9.82
-7.04
-2.12
4.29
10.98
16.18
17.77
14.32
5.94
-5.05
-14.59
-18.82
-15.54
-5.83
6.91
18.07
24.50
25.03
21.11
15.00
8.67
2.78
-2.90
-8.32
-13.00
-15.62
-15.08
-11.60
-6.45
-1.96
0.20
-0.64
-3.72
-7.59
-11.01
-12.99
-13.30
-11.57
-7.95
-2.89
2.19
5.41
5.09
1.23
-4.26
-8.24
-7.65
-1.58
8.82
20.36
29.64
34.17
33.46
28.36
20.88
13.33
7.32
4.12
3.74
4.98
5.86
4.28
-0.78
-8.68
-16.96
-22.48
-22.73
-17.27
-7.95
2.07
9.56
12.30
10.34
5.42
-0.18
-4.41
-6.51
-7.04
-7.35
-8.77
-11.80
-15.75
-19.23
-21.33
-21.68
-20.90
-19.55
-17.83
-15.37
-11.63
-6.76
-1.85
1.09
0.95
-2.15
-6.52
-9.74
-10.14
-7.54
-3.14
1.49
5.30
8.76
12.70
17.63
23.02
27.05
27.84
24.34
17.41
9.01
1.98
-1.91
-2.15
0.61
4.94
9.44
12.88
14.54
13.81
10.62
5.18
-1.85
-8.97
-14.42
-16.08
-12.90
-5.11
4.97
14.35
19.64
18.84
11.78
-0.31
-14.86
-28.99
-39.94
-45.72
-45.36
-39.21
-29.49
-18.89
-10.35
-4.98
-2.27
-0.48
1.83
4.80
7.11
7.02
4.18
-0.69
-5.58
-8.63
-8.59
-5.44
0.09
6.66
12.49
16.29
16.77
13.73
7.77
0.67
-5.45
-8.77
-8.37
-4.62
1.61
8.52
14.52
18.19
18.72
16.23
11.93
7.95
6.55
9.11
15.02
22.38
28.44
30.98
29.37
24.39
17.78
11.19
5.64
1.20
-2.05
-4.18
-5.71
-7.11
-9.21
-12.89
-18.44
-25.13
-31.43
-35.28
-34.87
-29.87
-21.19
-11.40
-2.84
2.91
6.25
8.65
12.17
17.43
23.52
28.65
30.90
29.67
25.72
20.64
15.33
10.19
4.75
-0.67
-4.94
-6.56
-4.54
0.74
6.96
11.36
11.84
7.61
-0.20
-9.23
-16.79
-21.10
-21.53
-19.15
-15.51
-12.52
-11.09
-11.22
-12.16
-13.16
-13.40
-12.83
-11.42
-9.01
-5.68
-1.79
1.42
2.54
0.44
-4.25
-9.67
-12.92
-12.09
-7.11
0.06
6.66
10.99
13.09
14.67
17.51
22.09
27.16
30.31
29.42
23.64
13.98
2.71
-7.45
-14.12
-16.10
-13.52
-7.76
-0.69
5.82
10.77
14.25
16.88
19.16
20.35
18.93
13.02
2.42
-11.30
-24.35
-33.17
-35.55
-32.03
-25.86
-20.68
-19.19
-21.59
-26.16
-30.34
-32.12
-30.78
-26.56
-20.25
-12.46
-4.26
3.19
8.55
11.18
11.31
10.04
8.50
7.46
6.66
5.32
3.59
2.47
3.54
7.89
14.56
21.11
24.58
23.30
17.71
10.08
3.70
1.04
3.10
8.75
15.68
20.80
21.83
17.93
10.65
2.63
-3.35
-5.90
-5.55
-4.08
-3.73
-5.19
-7.84
-10.24
-11.57
-11.61
-10.65
-8.94
-5.92
-1.67
3.03
6.55
7.41
5.12
1.17
-2.26
-3.39
-2.15
-0.40
-0.14
-1.98
-4.84
-6.83
-6.38
-3.58
-0.03
3.19
5.77
8.81
13.19
18.82
23.93
26.09
23.79
17.37
9.30
2.62
-0.20
1.23
4.78
7.32
5.79
-1.04
-12.36
-25.06
-35.64
-40.89
-39.44
-32.30
-21.98
-12.22
-6.34
-6.42
-11.92
-20.57
-28.83
-33.61
-33.99
-31.01
-27.14
-24.03
-21.67
-17.94
-11.05
-0.67
10.83
20.17
25.24
26.23
25.61
25.98
28.25
30.77
30.95
27.08
19.91
12.44
7.81
7.89
12.19
18.63
24.55
28.35
29.47
28.15
25.00
20.42
14.75
8.83
3.69
0.36
-0.33
1.40
4.22
6.17
5.63
2.39
-2.50
-6.83
-8.57
-6.94
-2.70
1.88
4.76
4.24
0.37
-5.83
-12.48
-17.86
-20.62
-20.43
-17.88
-13.87
-9.65
-5.66
-1.90
2.41
7.74
13.75
18.92
21.21
19.61
14.45
7.95
2.29
-1.37
-3.89
-6.80
-11.28
-17.14
-22.45
-25.48
-25.46
-23.10
-19.95
-17.03
-14.41
-11.45
-7.86
-4.03
-1.26
-0.40
-1.39
-3.58
-6.05
-8.66
-11.38
-14.02
-15.48
-14.83
-11.75
-7.33
-3.99
-3.39
-5.76
-8.97
-10.17
-7.42
-1.22
6.13
12.41
16.70
20.35
25.30
31.91
38.26
41.15
37.96
28.82
17.08
6.98
1.56
0.74
2.19
3.19
2.71
2.20
3.84
8.66
14.91
19.19
17.88
9.96
-2.41
-15.33
-24.62
-28.13
-26.15
-20.60
-13.29
-5.12
3.87
13.91
24.02
32.23
36.18
33.91
25.07
11.37
-4.23
-18.27
-27.65
-30.34
-26.19
-17.21
-6.91
0.08
-0.35
-10.04
-27.42
-47.91
-65.44
-75.14
-74.92
-65.51
-49.34
-29.50
-8.73
10.56
25.48
33.16
32.04
22.90
9.34
-3.07
-9.33
-7.38
1.26
12.14
20.83
25.17
25.92
25.98
27.86
32.74
39.34
45.26
47.89
45.83
38.90
28.09
15.11
1.69
-9.96
-18.11
-21.33
-19.11
-11.91
-1.19
11.36
24.12
35.51
44.05
48.53
48.32
43.35
34.40
22.83
9.85
-3.43
-16.39
-28.47
-39.61
-49.51
-57.74
-63.90
-67.55
-68.54
-66.68
-61.80
-53.23
-40.89
-25.46
-8.70
6.42
17.66
23.93
26.43
27.47
29.26
31.80
33.33
31.42
24.60
14.01
2.50
-6.91
-12.84
-15.72
-17.10
-17.86
-17.55
-15.33
-10.62
-4.56
0.97
4.39
5.78
6.28
7.15
8.33
8.02
4.62
-2.46
-11.67
-19.92
-24.34
-23.56
-18.67
-11.70
-5.20
-0.41
2.32
3.63
4.53
5.91
8.52
12.59
17.45
21.57
23.31
21.54
16.06
8.27
0.00
-6.45
-9.60
-8.65
-4.55
0.93
5.07
5.74
2.60
-3.21
-8.68
-11.14
-9.31
-4.09
2.32
7.60
10.59
11.98
12.62
13.47
14.32
14.44
12.90
9.78
5.63
1.70
-0.61
-0.61
1.50
4.69
7.42
8.05
5.80
1.34
-3.84
-7.68
-9.58
-9.93
-10.50
-12.63
-16.08
-19.15
-19.23
-14.84
-6.72
2.00
7.96
8.53
3.63
-4.67
-13.45
-20.11
-23.18
-22.45
-18.80
-13.29
-7.74
-3.61
-1.59
-0.95
0.33
4.53
13.10
25.10
37.78
47.44
51.56
49.80
43.78
35.77
27.11
18.43
9.60
1.00
-6.53
-11.67
-13.94
-14.08
-13.13
-12.03
-10.49
-7.99
-4.17
-0.50
0.90
-1.75
-8.43
-16.79
-23.45
-25.50
-22.40
-15.39
-7.11
0.32
5.70
9.02
10.77
10.88
9.31
5.66
0.64
-4.54
-8.16
-8.62
-5.67
-0.06
6.20
11.37
14.20
14.48
13.10
10.99
8.95
6.86
4.79
2.65
0.81
-0.17
0.05
1.01
1.94
2.20
1.14
-0.91
-3.79
-6.77
-9.49
-11.45
-12.18
-11.36
-8.85
-5.08
-0.30
4.70
9.16
12.26
12.94
10.28
3.96
-4.97
-14.55
-22.26
-26.29
-26.00
-22.38
-17.51
-13.56
-11.99
-12.85
-15.15
-17.09
-17.08
-14.29
-9.24
-3.58
0.96
2.94
2.69
1.44
0.99
2.45
5.98
10.68
15.21
18.25
18.75
16.07
9.99
1.33
-8.21
-16.51
-21.17
-21.08
-16.06
-7.46
2.92
12.92
21.01
25.68
25.99
21.83
14.62
7.14
2.10
1.17
3.61
7.45
10.55
12.25
13.58
15.41
17.62
18.41
15.47
7.86
-2.79
-13.24
-20.20
-22.25
-20.81
-18.39
-17.00
-16.50
-15.31
-12.09
-7.25
-2.96
-2.18
-6.74
-15.86
-26.91
-36.37
-41.53
-41.33
-36.10
-27.08
-15.81
-4.13
6.14
12.90
14.99
12.55
7.77
4.28
5.94
14.28
27.83
41.88
50.32
48.67
36.04
16.02
-4.78
-19.65
-24.61
-19.98
-9.60
1.29
9.17
13.33
15.10
16.50
18.26
19.77
19.64
17.37
13.28
8.87
5.52
3.74
3.20
2.76
1.67
-0.55
-3.86
-8.10
-12.58
-16.39
-17.97
-16.01
-10.40
-2.38
4.96
8.98
8.35
4.24
-1.12
-5.58
-8.14
-9.13
-9.13
-7.67
-3.53
3.69
12.58
19.83
21.77
16.59
5.09
-8.96
-21.46
-29.40
-31.91
-29.83
-24.80
-18.45
-11.67
-4.89
2.14
9.79
18.28
26.85
33.80
37.03
35.05
28.12
18.31
8.59
0.92
-4.32
-7.85
-10.62
-12.66
-13.19
-11.26
-6.93
-1.40
3.34
5.78
5.65
3.69
1.47
0.22
0.45
1.80
3.49
4.83
5.05
3.83
0.76
-3.51
-8.19
-11.97
-14.31
-15.13
-15.39
-15.79
-16.41
-16.60
-15.03
-11.38
-6.27
-1.30
1.77
1.98
-0.26
-3.77
-7.42
-10.46
-12.76
-14.22
-14.69
-13.73
-11.55
-8.78
-7.00
-7.46
-10.61
-15.50
-19.77
-20.83
-17.17
-8.61
3.04
15.61
26.49
34.36
38.35
38.74
36.23
32.09
27.94
24.96
23.93
24.40
25.23
24.99
23.12
20.16
17.32
15.67
14.86
14.12
11.77
7.41
1.19
-5.29
-10.64
-13.63
-14.04
-12.58
-10.11
-7.85
-6.39
-6.06
-6.77
-8.09
-9.55
-10.63
-11.22
-10.62
-8.52
-4.11
2.78
11.29
19.32
24.11
23.50
16.87
6.33
-4.87
-12.77
-15.18
-12.29
-6.41
-0.98
1.53
-0.15
-5.00
-11.45
-17.35
-21.44
-23.34
-23.26
-21.88
-19.63
-17.33
-15.20
-14.17
-14.69
-17.16
-20.99
-24.44
-25.46
-22.13
-14.60
-4.59
4.51
9.51
8.81
2.94
-4.93
-11.34
-12.68
-7.46
4.33
20.03
35.95
47.87
52.41
48.90
38.72
25.90
14.47
7.42
4.88
5.22
5.96
5.03
2.53
-0.76
-3.01
-3.48
-1.96
0.29
1.70
1.06
-2.34
-7.41
-12.64
-15.67
-15.49
-12.29
-7.59
-3.41
-0.73
0.30
1.05
2.32
4.69
7.27
8.65
7.86
5.09
1.87
-0.50
-0.84
0.29
2.04
2.97
2.20
-0.16
-3.37
-6.03
-6.96
-4.89
0.02
7.08
14.92
21.79
26.37
27.35
24.18
16.26
4.22
-10.50
-24.54
-33.86
-34.99
-26.88
-12.83
0.82
7.13
2.46
-12.13
-30.71
-45.87
-52.78
-50.31
-41.44
-30.02
-19.01
-8.96
0.57
10.19
18.85
24.30
24.74
19.56
10.77
1.88
-3.41
-3.18
2.43
11.06
18.98
23.33
22.70
18.37
12.87
9.03
8.08
9.47
11.29
12.24
12.18
11.62
10.58
8.16
2.50
-6.97
-18.87
-29.67
-35.70
-34.61
-27.38
-16.79
-6.40
1.64
7.13
10.79
13.27
14.47
13.85
10.75
5.40
-1.10
-7.10
-10.39
-9.19
-2.88
6.69
15.83
20.31
18.16
10.53
2.10
-1.94
1.38
10.97
22.41
30.56
32.29
27.56
19.01
9.74
2.01
-3.49
-6.69
-8.08
-8.06
-6.88
-4.64
-1.80
1.26
3.77
4.56
2.45
-3.33
-12.00
-21.13
-27.75
-29.49
-26.36
-20.62
-15.63
-13.31
-13.72
-14.48
-13.33
-9.43
-4.17
-0.09
1.10
-0.59
-3.22
-4.38
-3.02
-0.19
1.83
1.24
-1.97
-5.83
-7.85
-5.93
-0.15
7.94
15.68
20.76
22.17
20.31
16.78
13.49
12.09
12.86
15.02
17.25
18.10
17.19
14.49
10.91
6.94
3.24
0.18
-1.73
-1.78
-0.03
2.69
4.34
2.70
-3.66
-13.98
-25.83
-35.38
-39.27
-36.28
-27.28
-15.40
-4.36
3.05
5.99
4.88
1.63
-2.07
-5.14
-7.03
-7.89
-7.94
-7.28
-5.79
-3.56
-0.93
1.87
4.23
5.96
6.62
6.11
4.56
2.83
2.04
3.21
6.40
10.51
14.25
16.33
17.26
18.08
19.65
21.30
21.06
16.46
6.59
-6.34
-18.35
-24.92
-24.32
-18.16
-10.84
-7.00
-8.81
-15.18
-22.02
-25.46
-23.32
-16.60
-8.15
-0.71
4.31
7.61
10.40
13.43
15.59
15.46
11.69
4.85
-2.89
-9.15
-12.04
-11.44
-7.98
-2.72
4.02
11.39
18.20
23.05
24.78
23.93
21.68
19.30
16.81
12.99
6.40
-2.92
-12.45
-19.14
-20.56
-17.75
-13.82
-12.37
-14.61
-18.42
-19.90
-15.87
-6.85
3.86
11.44
12.94
8.37
0.45
-6.89
-11.09
-11.32
-8.96
-5.79
-4.13
-5.07
-8.36
-12.40
-14.38
-11.92
-4.28
6.70
17.57
24.69
26.67
25.04
22.75
22.63
24.27
25.09
21.43
12.46
0.81
-8.26
-10.16
-4.32
5.64
13.78
15.66
10.23
0.49
-8.86
-14.42
-15.64
-14.84
-14.45
-16.19
-19.33
-22.06
-22.24
-19.04
-13.17
-6.34
-0.69
2.56
3.16
2.22
0.88
-0.37
-1.87
-4.42
-8.14
-11.78
-12.56
-8.46
0.62
11.49
19.34
20.11
13.33
2.81
-5.68
-7.98
-4.19
1.84
4.76
1.48
-6.72
-15.66
-20.47
-19.09
-12.76
-5.31
-0.01
2.11
2.72
4.51
8.83
14.73
19.04
18.81
13.34
5.47
-0.63
-1.54
3.24
10.86
17.20
18.85
15.27
7.98
-0.20
-6.83
-10.03
-9.18
-4.19
4.15
13.57
21.07
23.68
19.99
11.17
0.22
-9.55
-15.86
-17.71
-14.95
-7.35
4.41
18.55
31.46
38.94
38.00
28.86
15.35
2.41
-6.15
-9.91
-11.06
-12.80
-16.73
-21.83
-25.26
-24.20
-18.18
-8.57
1.38
9.04
12.82
12.75
10.11
6.48
3.14
0.51
-1.75
-4.54
-8.69
-14.30
-20.29
-24.46
-24.92
-20.35
-11.69
-0.95
8.74
15.17
17.75
16.99
14.57
11.32
7.63
3.06
-2.09
-6.93
-10.07
-10.28
-8.02
-4.99
-4.13
-6.95
-13.45
-21.28
-27.48
-29.61
-27.02
-21.08
-13.79
-7.40
-3.03
-0.90
-0.20
-0.12
-0.35
-0.61
-1.27
-1.97
-2.31
-1.32
1.63
6.37
11.71
16.03
18.27
18.22
16.88
15.27
13.66
11.48
7.86
2.43
-4.32
-10.93
-16.19
-19.06
-19.31
-16.69
-11.32
-4.10
3.12
7.43
6.67
0.79
-7.34
-13.58
-14.57
-9.90
-2.08
5.18
9.09
8.89
5.60
1.20
-2.68
-4.71
-4.61
-2.52
0.95
4.41
6.33
5.65
2.43
-2.17
-6.18
-8.20
-7.46
-4.11
1.07
7.07
12.99
17.99
21.19
22.52
22.06
20.70
19.22
17.93
16.94
15.97
14.70
12.34
8.52
2.88
-3.75
-9.40
-11.76
-8.91
-1.49
7.55
13.45
12.24
2.62
-12.36
-27.04
-35.50
-34.35
-25.05
-12.24
-1.75
2.78
0.85
-5.01
-11.22
-14.90
-14.38
-9.61
-0.73
11.10
23.92
34.55
40.27
39.86
34.59
27.70
22.02
18.62
16.18
12.50
6.48
-0.94
-6.99
-9.53
-8.05
-4.29
-0.62
1.12
0.72
-0.73
-2.00
-2.45
-2.58
-2.98
-4.22
-6.00
-7.60
-7.94
-6.19
-2.69
1.08
2.86
0.94
-5.41
-14.95
-25.48
-34.51
-40.58
-43.24
-42.82
-40.14
-35.44
-28.89
-20.62
-11.47
-2.81
3.44
5.87
3.92
-1.72
-8.74
-14.22
-15.03
-9.38
2.07
16.49
29.12
35.86
34.81
27.36
17.50
10.57
10.12
17.07
29.22
42.18
51.49
54.08
49.28
37.93
22.37
5.30
-10.85
-23.97
-32.98
-37.62
-38.91
-38.05
-36.56
-34.82
-32.82
-29.99
-25.86
-20.28
-13.30
-4.96
4.46
14.41
23.88
31.71
36.77
38.75
37.95
35.54
32.53
29.43
25.95
21.31
15.01
7.16
-0.80
-7.26
-10.34
-9.61
-5.92
-1.37
1.79
2.21
0.21
-2.31
-3.41
-1.48
3.19
9.04
13.78
15.58
13.51
7.96
0.37
-8.15
-16.48
-24.04
-30.07
-33.68
-33.85
-30.39
-24.08
-16.50
-9.72
-4.93
-2.61
-2.13
-2.77
-4.10
-6.16
-9.40
-13.51
-17.46
-19.61
-18.67
-14.44
-7.95
-1.28
3.57
5.29
4.07
1.44
0.02
2.08
8.47
17.90
27.21
32.92
32.47
26.12
16.26
7.10
2.14
2.90
8.26
14.70
17.90
14.23
2.76
-14.75
-33.71
-48.88
-55.97
-53.37
-42.48
-26.63
-9.89
4.49
14.19
18.26
16.26
8.92
-1.68
-12.34
-19.09
-19.31
-12.27
-0.31
13.16
24.64
31.94
34.71
33.63
29.88
24.64
19.51
15.84
14.82
15.97
17.05
15.12
8.08
-3.15
-14.90
-21.95
-20.68
-11.50
1.10
10.51
12.41
6.43
-3.16
-11.46
-14.94
-13.75
-10.07
-6.15
-2.56
1.74
7.07
12.61
15.73
13.85
6.27
-4.51
-14.32
-19.56
-18.67
-13.33
-6.22
-0.13
3.42
3.94
1.75
-2.27
-7.02
-10.84
-12.50
-11.42
-8.46
-5.06
-2.53
-1.20
0.30
3.38
9.11
16.34
22.80
25.50
23.05
15.85
5.97
-3.42
-9.78
-11.85
-10.41
-6.84
-3.13
-0.37
1.60
3.69
6.98
11.14
14.74
14.96
9.99
-0.14
-12.91
-24.41
-31.17
-31.67
-27.07
-19.76
-12.23
-5.40
0.64
5.84
10.00
12.29
12.77
12.15
12.31
14.19
17.27
19.45
18.60
14.27
8.11
3.83
4.24
9.97
18.29
25.18
27.02
22.68
13.66
2.88
-6.59
-13.25
-16.80
-18.13
-18.40
-18.76
-19.59
-20.66
-21.62
-21.54
-20.02
-17.12
-13.67
-11.13
-10.67
-12.77
-16.79
-21.37
-24.18
-23.82
-19.55
-12.10
-3.32
4.66
10.38
13.30
13.89
13.35
12.32
11.41
10.21
8.49
6.14
3.73
1.84
1.14
2.09
4.33
7.62
11.17
14.13
15.65
15.38
13.59
11.19
9.40
8.79
9.80
11.76
13.83
15.28
15.79
15.57
15.06
14.49
13.38
11.48
8.03
3.01
-2.92
-8.30
-11.12
-9.94
-4.64
2.61
8.83
10.97
7.68
0.07
-8.96
-15.85
-18.34
-15.85
-10.11
-3.55
1.06
2.42
0.65
-2.94
-6.40
-8.47
-8.40
-7.00
-5.53
-5.39
-6.70
-8.26
-8.55
-6.53
-3.09
-0.40
-1.02
-5.08
-10.04
-11.37
-5.31
7.87
23.83
35.88
38.29
29.52
13.01
-5.41
-20.76
-31.34
-38.91
-45.33
-50.67
-52.08
-46.15
-31.82
-12.36
5.73
16.05
15.39
5.29
-9.48
-23.90
-35.00
-42.28
-46.79
-48.59
-45.69
-35.79
-17.88
5.47
28.79
45.76
52.28
48.70
39.25
29.81
24.67
25.22
29.58
35.10
39.60
41.90
41.70
38.20
30.53
18.47
3.54
-11.28
-22.50
-27.82
-27.21
-22.38
-15.53
-7.81
0.71
10.01
18.76
24.26
24.11
17.52
6.60
-4.72
-12.39
-14.68
-12.60
-8.91
-6.59
-6.76
-8.72
-10.41
-10.27
-7.80
-4.33
-1.32
0.52
1.65
3.15
4.88
5.71
3.52
-2.81
-12.37
-21.52
-25.92
-23.01
-13.39
-0.98
9.40
14.37
14.09
11.28
9.37
10.09
12.91
15.96
17.31
16.37
13.34
8.85
3.09
-3.27
-9.11
-12.38
-11.10
-5.19
3.25
10.06
11.81
7.58
0.03
-5.95
-6.22
0.19
9.89
17.54
17.91
9.39
-5.44
-21.34
-33.02
-37.70
-35.79
-30.54
-25.03
-21.22
-18.53
-15.32
-10.32
-3.70
2.92
7.66
9.26
8.69
7.78
8.70
12.45
18.85
26.34
32.49
35.08
32.01
22.94
8.98
-6.60
-19.90
-27.38
-27.22
-20.07
-8.44
3.98
13.91
18.57
17.08
10.26
0.79
-7.41
-10.44
-6.14
4.32
16.79
25.71
27.20
20.75
9.38
-2.41
-10.99
-14.86
-15.22
-13.66
-11.55
-8.62
-4.12
2.39
10.05
16.82
20.55
19.61
14.23
5.64
-3.77
-11.74
-16.45
-17.30
-15.15
-11.69
-9.22
-8.98
-11.35
-15.23
-19.06
-21.44
-21.92
-20.39
-16.70
-11.02
-3.54
4.51
11.57
16.31
18.10
18.02
17.52
18.11
19.86
22.28
23.87
23.97
22.37
19.23
14.89
9.11
2.17
-5.26
-11.44
-15.03
-15.41
-13.40
-10.74
-8.79
-8.18
-8.40
-8.89
-8.92
-8.32
-7.14
-5.25
-2.79
0.01
2.15
2.63
0.87
-2.39
-5.27
-5.21
-0.01
10.42
24.20
37.02
44.48
43.41
33.70
18.61
2.96
-9.13
-16.13
-19.49
-22.32
-26.67
-32.50
-37.29
-38.48
-35.44
-29.73
-24.53
-21.76
-21.37
-21.32
-19.73
-16.01
-11.04
-6.26
-2.05
2.30
8.30
16.27
24.94
31.84
34.72
32.98
28.02
22.40
18.20
15.78
13.89
11.44
8.43
6.71
8.20
13.49
20.85
25.98
24.76
14.90
-1.55
-19.41
-32.55
-37.22
-33.58
-25.32
-17.58
-13.80
-14.42
-17.07
-18.65
-17.08
-12.77
-8.06
-5.75
-7.10
-10.42
-12.42
-9.74
-1.64
9.65
19.87
24.95
23.76
18.17
12.61
10.37
12.14
15.49
16.92
14.48
8.77
3.13
0.57
2.70
7.96
13.73
17.37
18.06
16.65
14.48
12.57
10.42
7.26
2.25
-4.28
-11.64
-18.88
-24.86
-29.04
-31.04
-31.36
-30.26
-28.20
-25.07
-20.48
-14.66
-7.91
-1.73
2.48
3.66
2.35
0.15
-1.05
-0.00
2.74
5.66
6.92
6.43
5.26
5.34
7.46
10.60
12.58
10.76
4.16
-6.09
-16.34
-22.50
-21.81
-14.16
-2.35
9.50
17.03
18.49
14.43
7.89
2.66
1.28
4.47
10.66
17.33
22.00
23.61
22.01
18.15
13.04
7.90
3.48
0.40
-0.98
-0.65
1.32
4.20
7.25
9.63
10.77
10.29
7.93
3.89
-1.44
-7.10
-12.23
-15.86
-17.58
-17.57
-16.68
-15.80
-15.67
-16.59
-18.07
-19.28
-19.48
-18.31
-15.89
-12.94
-10.65
-9.66
-10.41
-11.97
-13.30
-12.84
-9.80
-4.24
2.96
10.21
16.05
19.05
18.78
15.02
8.66
1.30
-4.77
-7.35
-5.62
-0.45
5.29
8.98
9.26
7.27
5.48
6.09
9.31
12.82
13.56
9.44
1.38
-7.48
-13.28
-13.98
-10.61
-5.81
-2.64
-2.28
-4.05
-6.38
-7.98
-8.50
-8.31
-8.17
-7.88
-7.24
-5.61
-3.43
-1.23
0.17
0.79
1.04
1.45
1.98
2.29
2.18
1.69
1.82
3.41
6.51
10.63
15.00
19.45
24.09
29.23
34.26
37.62
38.01
35.03
30.02
25.48
23.32
23.61
24.50
23.31
18.21
9.77
0.56
-6.32
-9.28
-8.78
-7.19
-6.60
-8.48
-12.78
-18.54
-24.61
-29.64
-33.08
-34.57
-34.65
-34.00
-33.27
-32.45
-30.47
-25.96
-17.89
-6.40
6.59
17.65
23.71
23.26
17.69
10.28
4.50
2.34
2.86
2.97
-0.89
-9.94
-22.34
-33.69
-39.32
-36.98
-27.81
-15.77
-5.20
1.72
5.74
9.47
14.81
21.65
27.44
29.32
25.36
16.33
5.01
-5.04
-11.72
-14.81
-15.45
-15.33
-14.98
-14.01
-11.27
-6.59
-0.97
3.73
5.74
5.01
2.81
1.38
2.77
7.53
14.63
21.81
26.70
27.93
25.43
19.71
12.06
3.64
-4.34
-10.83
-14.66
-14.94
-11.51
-4.81
3.43
11.13
15.78
15.76
10.95
3.32
-3.80
-6.90
-3.62
5.55
17.95
29.19
35.45
34.92
28.20
17.78
6.60
-3.19
-10.70
-15.91
-19.41
-21.45
-22.32
-22.74
-23.73
-26.42
-31.03
-36.61
-40.61
-40.57
-34.81
-23.69
-9.91
3.13
12.21
16.12
15.33
12.14
8.53
5.97
4.57
4.01
4.34
5.51
7.94
11.48
15.41
18.52
20.21
20.64
20.56
21.03
22.21
23.25
22.39
18.68
12.45
5.45
-0.09
-3.18
-4.13
-4.96
-7.16
-11.13
-15.42
-18.14
-17.90
-14.64
-9.43
-3.43
2.29
7.25
10.38
10.44
6.24
-2.75
-15.28
-28.76
-40.05
-47.28
-50.00
-49.10
-45.89
-41.69
-37.04
-32.09
-27.11
-21.97
-16.91
-12.43
-8.76
-5.43
-1.16
5.87
17.05
31.51
46.26
56.64
58.89
51.73
37.82
22.35
11.16
7.97
12.79
22.30
31.41
35.00
30.07
16.89
-0.82
-17.40
-27.36
-28.48
-22.39
-14.10
-8.34
-6.96
-8.42
-8.91
-5.58
1.01
7.45
10.52
9.11
5.43
3.39
5.52
11.28
17.24
19.83
17.22
10.64
3.02
-2.98
-6.20
-7.11
-6.62
-5.15
-2.68
0.29
3.01
4.09
2.61
-1.16
-5.74
-9.09
-10.02
-8.12
-4.20
0.50
4.86
8.21
10.25
10.53
8.65
4.61
-0.25
-3.84
-3.84
1.14
10.20
20.85
29.45
33.24
31.28
24.79
16.11
7.82
1.44
-2.44
-3.99
-4.09
-3.49
-3.68
-6.08
-11.78
-20.20
-29.45
-36.68
-39.34
-36.89
-30.77
-24.04
-19.28
-17.39
-16.76
-14.52
-7.76
4.69
20.82
36.25
45.68
45.25
34.37
16.02
-4.61
-22.30
-33.96
-39.86
-42.09
-43.49
-44.81
-44.72
-40.25
-28.91
-10.81
10.61
29.62
41.16
42.51
34.96
22.63
10.54
1.85
-3.21
-6.09
-8.35
-9.70
-9.00
-4.89
2.03
9.26
13.93
14.43
11.83
8.52
6.74
6.35
5.72
2.89
-2.74
-9.22
-13.65
-13.73
-9.91
-4.23
0.42
2.09
0.72
-2.45
-5.07
-4.98
-0.35
9.09
22.34
36.05
45.77
47.63
40.05
25.43
8.71
-4.31
-10.84
-11.47
-9.89
-9.71
-12.32
-16.23
-18.43
-17.19
-13.11
-8.84
-7.35
-9.98
-15.50
-20.67
-22.58
-19.58
-12.61
-4.20
2.48
5.20
3.13
-2.59
-9.58
-15.27
-17.68
-16.83
-13.97
-11.00
-9.12
-8.20
-6.94
-3.73
1.70
8.27
13.61
15.96
15.28
13.43
12.90
14.93
18.55
21.10
20.13
15.25
8.42
2.72
0.22
0.86
2.42
2.78
1.12
-1.05
-1.95
-0.51
1.94
3.29
1.98
-1.92
-6.60
-10.25
-11.99
-12.05
-10.88
-8.52
-4.32
1.90
9.00
14.62
16.00
11.96
3.60
-5.73
-12.10
-12.72
-7.50
1.34
10.47
16.78
18.84
17.03
13.33
9.77
7.41
6.09
4.58
2.12
-1.69
-5.80
-9.36
-11.84
-13.80
-15.71
-17.71
-18.84
-17.64
-13.55
-7.00
0.24
5.97
8.87
8.83
7.06
4.88
3.30
2.34
1.93
1.89
2.57
4.59
7.80
10.79
11.21
7.22
-1.29
-11.84
-20.47
-23.72
-20.55
-12.95
-4.14
2.99
7.74
10.93
14.13
17.53
19.97
19.89
16.75
11.61
6.75
3.92
3.41
4.05
4.44
3.83
3.03
3.33
5.93
10.43
15.01
17.47
16.07
10.59
2.98
-3.97
-7.73
-7.58
-5.08
-2.71
-2.86
-5.94
-10.30
-13.27
-12.91
-9.47
-5.23
-2.96
-4.06
-7.75
-11.26
-12.25
-9.85
-5.79
-2.94
-3.70
-8.26
-14.58
-19.61
-21.10
-18.91
-14.35
-9.13
-4.15
0.61
5.24
9.34
11.79
11.89
9.93
7.06
4.76
3.82
3.84
3.39
1.35
-2.37
-6.40
-8.85
-7.97
-3.49
3.61
11.75
18.91
23.84
25.59
24.46
21.79
19.52
18.94
19.61
19.38
14.97
4.73
-10.21
-25.87
-37.45
-41.43
-37.56
-28.72
-18.84
-11.08
-6.21
-3.40
-0.95
1.67
3.47
3.42
1.41
-1.04
-1.41
2.68
11.65
23.70
35.15
42.33
43.29
38.13
29.36
19.71
11.47
5.38
1.21
-1.39
-2.84
-3.32
-4.12
-6.61
-12.28
-20.89
-30.60
-38.33
-41.28
-38.91
-32.93
-26.91
-23.37
-22.80
-23.43
-22.42
-17.88
-9.77
-0.04
8.83
14.91
18.08
19.06
19.26
19.87
21.11
23.03
24.68
25.05
23.16
18.81
12.79
7.10
4.07
4.59
7.76
10.46
9.71
4.04
-4.99
-13.99
-19.20
-18.76
-13.49
-5.53
2.73
10.06
16.26
21.22
23.86
22.68
16.56
6.00
-6.53
-18.09
-26.45
-31.60
-35.33
-39.66
-44.83
-49.06
-49.35
-43.64
-32.80
-20.18
-10.17
-5.90
-7.35
-11.96
-16.02
-17.05
-14.32
-9.55
-5.06
-3.18
-4.72
-9.01
-13.63
-15.63
-13.01
-5.52
4.26
12.77
16.80
16.20
13.35
11.67
13.15
16.81
20.06
20.00
16.46
11.81
9.89
13.09
20.94
30.55
37.85
40.21
37.34
31.35
24.89
19.76
16.04
12.61
8.47
3.49
-0.52
-1.21
3.02
11.33
20.35
25.39
22.72
11.69
-4.92
-21.41
-32.20
-33.34
-24.74
-9.44
7.46
20.45
25.66
21.81
10.90
-2.91
-14.69
-20.84
-20.17
-13.88
-4.52
5.68
14.76
21.69
25.12
24.08
18.02
7.71
-4.78
-16.56
-24.91
-28.45
-26.97
-21.81
-14.40
-6.73
-0.39
3.14
3.23
0.64
-2.84
-4.69
-3.49
0.57
5.36
8.28
7.61
3.22
-3.17
-9.92
-15.59
-20.08
-23.52
-25.72
-25.86
-22.76
-16.01
-6.18
4.62
14.32
21.36
25.36
27.02
27.18
26.54
24.96
22.13
16.95
8.94
-2.01
-14.41
-25.85
-33.59
-35.51
-31.48
-23.01
-12.83
-3.38
4.17
9.54
12.93
13.79
11.46
5.45
-2.92
-10.85
-14.94
-13.67
-7.80
-0.10
5.92
8.27
6.53
2.24
-2.89
-7.15
-10.01
-11.47
-11.79
-11.15
-9.55
-7.38
-4.75
-2.16
-0.04
1.38
2.14
2.31
2.07
1.51
0.70
0.03
-0.15
0.71
2.89
6.09
9.30
11.32
11.57
10.18
8.60
8.13
9.64
12.78
16.03
17.88
17.10
13.66
8.45
3.10
-1.28
-3.83
-4.47
-3.85
-2.71
-2.05
-2.12
-2.97
-4.23
-5.50
-6.59
-7.37
-7.63
-7.12
-5.92
-4.25
-3.07
-3.11
-4.70
-7.05
-9.00
-9.39
-7.59
-4.59
-1.78
-0.98
-2.76
-6.51
-10.45
-12.71
-12.10
-8.40
-2.51
4.37
10.96
16.75
21.41
24.74
26.41
25.51
21.57
14.78
6.56
-1.31
-6.65
-8.45
-6.71
-2.17
3.38
8.43
11.28
11.01
6.79
-1.05
-11.18
-21.01
-26.99
-26.56
-18.37
-4.14
12.38
26.69
35.72
38.46
36.14
30.87
23.70
14.77
3.40
-9.85
-22.72
-31.68
-33.92
-29.54
-21.34
-14.03
-10.54
-11.20
-13.09
-12.47
-7.72
-0.12
6.50
8.94
5.83
-0.61
-7.13
-10.39
-9.10
-4.25
2.11
7.57
10.60
10.07
6.28
-0.21
-7.87
-14.80
-19.20
-19.72
-16.53
-10.55
-3.81
2.24
6.22
7.49
6.08
2.46
-1.93
-5.53
-6.46
-3.99
1.57
8.30
13.82
16.77
16.93
15.90
15.16
15.23
14.57
11.13
3.45
-7.47
-17.94
-23.72
-21.61
-12.11
1.61
14.41
22.05
22.67
17.27
8.69
0.10
-5.56
-7.20
-4.69
0.59
6.48
10.35
10.36
6.18
-0.72
-6.92
-9.34
-6.00
2.52
13.35
22.55
27.31
26.83
22.42
16.93
12.61
10.08
8.31
5.45
0.34
-6.75
-13.79
-18.07
-17.56
-12.32
-4.51
2.14
4.38
1.22
-6.10
-14.14
-19.64
-20.78
-18.37
-14.65
-12.47
-13.20
-16.29
-20.02
-22.28
-22.07
-19.50
-15.50
-10.70
-5.63
-0.21
5.39
10.65
14.48
15.52
13.36
8.41
2.59
-1.93
-3.02
-0.19
5.63
11.91
15.64
14.59
7.93
-3.03
-15.38
-25.25
-29.51
-26.57
-17.11
-4.22
8.21
16.34
18.00
13.45
5.30
-2.90
-7.93
-7.86
-3.25
4.04
11.14
15.69
16.54
13.80
8.76
2.96
-1.80
-4.54
-4.55
-2.17
1.88
6.43
9.91
10.87
8.06
1.80
-6.56
-14.19
-18.73
-18.60
-14.04
-7.03
0.26
6.17
9.90
11.27
10.68
8.19
3.61
-2.55
-9.39
-15.01
-17.52
-15.74
-10.26
-2.79
4.09
7.99
7.74
3.05
-4.85
-14.16
-23.09
-30.31
-34.92
-36.20
-33.59
-26.21
-14.44
0.46
15.54
27.57
34.23
34.90
31.05
25.34
20.55
18.05
18.01
19.07
19.54
18.21
14.98
10.55
5.87
1.80
-1.25
-3.14
-4.04
-4.14
-3.52
-2.20
0.13
3.38
7.34
11.26
14.54
16.79
17.95
18.30
18.08
17.51
16.06
12.80
6.55
-3.43
-16.54
-30.53
-42.08
-48.00
-46.32
-37.68
-24.40
-10.22
1.57
8.95
11.68
10.47
6.51
0.75
-5.88
-11.72
-14.53
-11.91
-2.95
10.41
23.93
32.64
33.24
25.86
14.85
5.67
2.64
6.34
13.43
19.32
20.63
17.17
11.10
5.67
2.27
0.55
-0.75
-2.68
-4.89
-6.41
-7.00
-8.08
-11.78
-19.91
-31.83
-44.29
-52.89
-54.38
-48.97
-39.52
-30.26
-23.74
-20.08
-16.69
-11.06
-2.95
5.67
11.18
11.63
7.73
3.26
2.48
7.67
17.73
28.43
35.58
36.71
32.76
27.03
23.23
22.88
25.42
28.60
30.39
30.00
27.67
24.21
19.65
13.60
5.63
-3.52
-11.70
-16.53
-15.93
-10.51
-2.61
3.96
6.20
3.22
-3.59
-11.56
-18.64
-23.69
-27.34
-30.39
-32.99
-34.21
-32.61
-27.13
-17.96
-7.44
1.67
6.54
6.45
2.38
-2.86
-6.52
-6.51
-2.06
5.91
16.02
25.81
33.45
37.45
37.31
33.36
26.29
16.86
5.49
-6.96
-19.51
-29.79
-35.34
-34.11
-25.69
-12.26
2.23
13.17
18.03
16.46
10.92
4.84
0.88
0.12
1.30
2.33
0.91
-3.81
-11.69
-21.06
-29.96
-36.31
-38.13
-34.37
-24.57
-9.85
7.49
23.36
33.58
34.94
26.78
11.98
-4.69
-17.47
-22.86
-20.37
-12.72
-3.89
2.88
6.53
8.35
10.21
13.28
16.55
18.33
17.54
14.70
12.26
12.60
16.75
22.81
27.26
26.44
19.46
8.31
-2.78
-10.03
-11.98
-9.66
-5.86
-2.86
-1.62
-1.46
-1.16
-0.43
0.19
-0.76
-4.13
-9.71
-15.48
-19.28
-19.21
-15.35
-9.18
-3.22
0.27
0.64
-1.48
-4.28
-6.38
-7.24
-7.42
-7.95
-9.17
-10.66
-11.20
-10.08
-6.84
-2.28
2.42
6.36
9.02
10.51
11.09
10.81
9.37
6.66
3.02
-0.29
-1.42
1.00
7.50
16.42
24.95
29.40
27.40
18.11
3.42
-13.13
-27.24
-35.17
-35.40
-28.15
-15.72
-1.18
12.12
22.11
27.83
29.25
26.97
21.57
13.67
4.14
-5.35
-13.29
-17.99
-18.68
-15.49
-8.92
-0.17
9.22
17.27
22.19
22.49
17.90
9.44
-0.79
-10.06
-16.58
-19.57
-20.05
-19.46
-19.64
-21.55
-25.01
-28.85
-30.87
-29.32
-23.41
-14.33
-4.46
2.81
5.24
2.30
-4.68
-12.53
-18.17
-19.29
-15.36
-7.36
2.46
11.92
19.18
23.28
24.18
22.27
18.43
13.49
8.70
5.56
5.46
8.66
14.00
19.05
20.86
18.07
11.56
4.25
-0.45
-0.34
3.95
9.40
12.80
12.27
8.75
4.92
3.48
5.34
9.32
12.92
13.90
11.32
5.95
-0.28
-5.66
-8.97
-10.42
-10.64
-10.62
-10.98
-11.93
-13.11
-13.79
-13.70
-12.69
-11.42
-10.87
-11.62
-13.43
-15.09
-15.33
-13.29
-9.29
-4.87
-1.67
-0.66
-1.15
-1.69
-0.37
3.52
9.11
14.34
17.23
16.65
13.05
8.03
3.04
-0.86
-3.94
-6.43
-8.53
-9.49
-8.83
-6.49
-3.34
-1.09
-0.99
-3.26
-6.83
-10.23
-12.25
-12.66
-11.98
-11.06
-10.34
-9.67
-8.29
-5.75
-1.84
3.20
8.72
13.43
15.95
15.00
10.58
4.06
-2.25
-6.02
-6.34
-3.83
-0.32
2.94
5.20
6.91
8.66
10.66
12.88
15.22
17.44
19.11
19.61
18.10
14.78
10.82
8.37
9.72
15.01
22.07
27.10
26.91
20.39
9.99
-0.40
-7.30
-9.32
-8.02
-5.89
-5.26
-6.77
-9.62
-11.98
-12.53
-11.43
-9.47
-8.15
-7.94
-8.09
-6.49
-1.67
6.72
16.79
25.37
29.58
27.67
20.41
9.88
-1.33
-11.20
-19.10
-25.37
-30.94
-36.02
-40.85
-44.46
-46.15
-44.84
-40.18
-32.59
-23.14
-13.71
-5.87
-0.95
1.15
1.15
0.20
-0.63
-0.45
1.58
5.47
11.24
17.66
23.43
26.64
25.71
20.45
11.82
2.32
-5.41
-9.08
-8.15
-3.34
3.43
10.21
15.71
19.21
20.56
19.24
15.27
8.37
-0.63
-9.82
-16.83
-19.76
-18.57
-14.52
-9.95
-6.25
-3.59
-0.68
3.72
9.77
16.37
21.11
21.92
17.62
9.04
-1.17
-9.32
-12.01
-8.10
0.95
10.72
16.71
15.76
8.28
-2.79
-13.31
-20.35
-23.63
-24.21
-23.78
-22.56
-19.76
-14.59
-7.67
-1.08
2.85
3.10
0.90
-1.35
-1.35
1.12
4.73
7.57
9.02
9.51
9.95
10.69
11.27
10.80
9.09
6.95
5.69
5.84
6.56
5.78
1.65
-6.24
-16.24
-25.25
-29.78
-27.29
-17.70
-3.07
12.63
24.82
30.53
29.99
26.53
24.62
27.18
33.34
39.21
40.80
36.95
30.02
24.56
23.30
25.54
27.54
25.42
17.99
7.62
-1.62
-7.05
-8.41
-8.13
-8.83
-11.59
-15.59
-18.69
-19.57
-18.46
-17.13
-17.39
-20.05
-24.00
-26.95
-26.18
-20.30
-10.02
1.81
11.14
14.89
11.77
3.32
-7.44
-17.35
-24.47
-28.70
-31.10
-32.98
-35.18
-37.66
-39.61
-39.81
-37.49
-32.13
-24.45
-15.60
-7.12
-0.42
3.42
4.40
3.78
3.08
4.12
7.53
12.84
18.13
21.35
21.33
18.68
15.68
14.10
14.57
15.22
13.02
5.78
-5.77
-17.98
-25.70
-24.51
-13.64
4.18
23.42
38.53
46.46
47.08
43.20
37.90
33.44
29.29
23.78
14.71
1.69
-12.92
-25.39
-31.81
-30.93
-24.26
-15.73
-9.01
-6.11
-6.28
-6.55
-4.20
2.18
11.53
20.74
26.18
26.20
21.30
13.83
6.57
0.49
-4.74
-10.59
-17.49
-24.14
-28.02
-27.00
-21.35
-13.51
-7.13
-4.68
-6.30
-9.68
-11.55
-9.87
-4.86
1.37
6.38
8.74
8.81
7.90
7.82
9.49
12.65
16.25
19.24
21.28
22.30
22.32
20.35
14.79
4.76
-8.84
-22.33
-31.25
-32.07
-25.31
-14.74
-5.74
-2.05
-4.12
-8.81
-12.23
-12.33
-10.02
-8.16
-8.72
-11.27
-13.20
-11.65
-5.74
2.72
10.06
13.36
11.50
5.93
-0.45
-4.72
-5.15
-1.59
4.86
12.51
19.81
25.54
29.27
30.94
30.66
28.47
23.99
17.33
9.11
1.17
-4.62
-6.67
-5.52
-3.55
-3.46
-6.93
-13.15
-19.79
-24.61
-27.25
-29.13
-31.88
-35.60
-37.67
-34.59
-24.05
-7.53
10.54
24.67
31.59
31.85
29.40
28.66
31.40
36.35
39.35
36.86
27.91
15.08
3.10
-3.63
-3.39
1.21
5.72
5.77
0.19
-8.73
-16.69
-20.11
-18.69
-14.89
-13.07
-16.22
-24.64
-35.44
-44.28
-47.30
-42.84
-31.95
-17.42
-3.14
7.48
12.41
11.63
6.95
1.09
-3.18
-5.02
-5.08
-4.84
-5.24
-6.08
-6.04
-3.64
1.08
7.01
12.01
14.82
14.95
13.30
10.87
8.10
4.85
0.92
-2.63
-4.27
-2.16
3.79
11.58
17.59
18.47
13.41
4.19
-5.37
-11.70
-12.91
-9.71
-4.15
2.06
7.95
13.76
19.23
23.24
23.55
18.51
8.34
-4.30
-15.12
-20.44
-18.27
-9.79
1.87
12.43
18.69
19.49
16.17
11.82
8.96
8.56
9.02
7.35
1.27
-8.68
-19.05
-25.34
-24.52
-17.19
-7.31
0.13
1.88
-1.94
-8.28
-13.16
-13.81
-9.60
-1.84
7.47
15.90
21.77
23.96
22.32
17.55
11.05
4.81
0.07
-2.53
-3.48
-3.88
-4.91
-7.43
-11.54
-15.89
-18.20
-16.24
-8.67
3.45
17.08
27.90
32.54
29.60
20.26
7.58
-5.37
-16.16
-24.12
-29.22
-31.93
-32.16
-29.61
-24.55
-18.24
-12.77
-9.39
-8.24
-7.83
-6.11
-1.88
4.30
10.20
13.39
12.52
9.22
6.30
6.71
10.65
15.71
18.13
15.37
8.25
-0.03
-5.09
-4.93
-0.58
4.00
4.44
-1.64
-13.08
-25.31
-33.07
-32.47
-23.30
-8.37
7.39
19.09
24.23
23.34
19.74
17.47
19.59
25.79
33.00
37.09
35.05
27.01
15.62
5.21
-1.31
-3.28
-2.70
-1.98
-2.06
-2.17
-0.09
4.96
11.67
16.09
14.91
7.00
-4.88
-15.47
-20.22
-17.38
-9.49
-1.55
1.56
-2.24
-11.35
-21.57
-28.58
-30.16
-25.93
-17.51
-6.42
6.05
19.31
31.99
41.75
45.69
41.50
29.44
12.00
-6.22
-20.83
-29.14
-31.28
-29.38
-26.21
-24.22
-24.02
-25.19
-26.34
-26.24
-24.14
-20.36
-15.77
-11.61
-8.76
-7.00
-5.93
-4.66
-3.21
-2.49
-3.99
-8.88
-16.72
-25.63
-32.06
-33.09
-27.36
-15.80
-1.77
11.02
19.32
22.03
19.65
14.19
7.57
1.61
-2.39
-3.45
-0.71
6.22
16.62
28.00
37.01
40.39
36.79
27.35
15.29
4.54
-2.29
-4.33
-2.87
0.68
5.06
9.87
14.93
19.09
20.73
18.54
12.57
4.63
-2.63
-7.01
-7.97
-6.40
-3.83
-1.25
0.90
2.71
4.40
6.19
8.20
10.67
13.62
16.47
18.40
18.59
16.85
13.45
9.44
5.47
1.99
-0.89
-3.20
-4.76
-5.51
-5.46
-4.88
-3.86
-2.24
0.14
3.19
5.64
5.91
2.46
-4.42
-13.15
-21.00
-26.05
-27.99
-27.79
-27.12
-26.74
-26.66
-25.83
-23.59
-20.05
-16.39
-13.86
-12.70
-12.50
-11.77
-9.64
-5.97
-1.67
2.24
5.45
8.27
11.61
15.76
20.56
25.08
27.93
27.79
23.04
12.99
-2.17
-19.58
-34.91
-42.59
-39.20
-25.03
-4.58
15.12
28.01
31.32
26.86
18.77
11.75
8.06
7.56
8.61
9.28
8.90
8.02
7.68
8.22
9.12
9.42
7.98
4.74
0.34
-3.46
-5.15
-3.70
0.37
5.34
9.02
9.39
6.06
-0.01
-6.65
-11.83
-14.15
-13.57
-11.15
-8.50
-7.14
-7.52
-9.37
-11.65
-13.89
-15.85
-17.41
-18.21
-17.52
-14.64
-9.82
-5.04
-2.99
-5.84
-13.33
-22.03
-27.30
-25.36
-16.26
-3.32
8.06
14.24
14.97
13.38
13.20
16.47
21.98
26.60
27.47
23.54
16.27
8.32
2.28
-0.68
-0.56
2.07
6.56
12.41
18.64
23.85
26.30
24.88
19.41
11.05
2.07
-5.41
-9.59
-9.21
-4.13
4.52
14.16
21.46
23.65
19.64
10.73
0.32
-7.71
-10.59
-8.19
-2.98
1.70
2.93
-0.07
-6.84
-15.48
-23.86
-29.49
-30.47
-25.69
-15.81
-3.63
7.39
14.48
16.92
15.66
12.60
8.91
4.52
-1.32
-8.86
-16.54
-21.89
-23.07
-20.67
-17.51
-17.26
-21.18
-27.30
-31.19
-28.46
-17.65
-1.11
16.30
29.33
34.95
32.70
24.42
12.66
0.24
-10.89
-18.73
-21.76
-19.79
-14.02
-7.18
-2.05
-0.43
-1.60
-3.37
-3.19
-0.12
4.78
9.51
12.27
12.86
12.53
13.25
15.90
20.44
25.37
28.85
29.48
26.63
20.63
12.51
3.77
-3.86
-8.71
-9.62
-6.85
-1.61
3.72
7.32
8.30
7.20
5.39
4.65
6.19
10.60
17.65
26.47
35.88
43.71
47.66
45.37
35.63
19.32
-0.53
-19.48
-33.90
-42.26
-46.41
-49.49
-54.45
-61.78
-69.72
-75.00
-74.89
-68.78
-58.00
-44.88
-31.56
-19.15
-7.80
2.36
10.62
16.00
17.28
14.90
10.26
5.95
3.97
5.13
8.43
11.84
13.72
13.08
10.43
6.78
3.52
1.62
1.81
5.18
12.10
22.42
34.09
44.14
49.27
47.55
39.52
28.01
16.80
9.16
6.27
6.87
8.84
10.15
10.12
9.60
9.52
10.38
11.71
12.66
12.72
12.40
12.10
11.83
10.80
7.61
1.90
-5.53
-12.52
-17.62
-20.95
-24.47
-30.36
-38.84
-47.23
-51.15
-47.12
-34.83
-18.02
-2.28
7.33
8.96
4.47
-2.21
-7.02
-8.20
-6.30
-3.58
-2.11
-3.09
-6.24
-10.69
-15.61
-20.81
-26.49
-32.51
-37.74
-40.31
-38.16
-30.25
-17.02
-1.17
13.80
23.91
27.07
23.10
14.68
5.59
-0.48
-1.43
2.39
9.35
16.95
23.42
27.89
30.11
29.97
27.07
21.53
14.11
7.30
3.67
5.20
11.35
19.55
26.25
28.74
26.57
21.37
15.98
12.13
10.10
8.65
6.03
1.86
-2.97
-6.39
-7.26
-5.26
-1.95
1.19
3.10
3.89
4.64
5.90
7.20
6.61
2.43
-6.34
-18.40
-30.41
-38.58
-39.80
-34.18
-24.13
-13.90
-6.64
-3.28
-2.32
-1.31
0.68
3.07
3.31
-0.35
-7.69
-15.89
-21.50
-22.11
-17.94
-12.02
-7.97
-8.14
-11.76
-15.88
-16.99
-13.47
-5.99
2.59
9.07
11.89
11.43
10.02
9.92
12.23
16.28
19.92
21.29
19.31
14.72
8.85
3.54
-0.33
-2.50
-3.15
-2.35
-0.25
2.74
6.28
9.63
12.26
13.79
14.41
14.33
13.85
13.05
11.58
9.08
4.99
-0.31
-6.07
-10.73
-12.35
-9.40
-1.21
10.82
23.95
34.61
39.42
36.42
25.74
9.72
-7.88
-22.29
-29.98
-29.20
-21.29
-9.49
1.91
9.26
10.67
5.92
-3.43
-14.97
-25.65
-32.91
-34.78
-30.55
-21.26
-9.13
2.75
11.72
16.37
16.75
13.71
8.56
2.56
-3.38
-8.57
-12.57
-15.30
-16.73
-16.54
-14.51
-10.81
-6.53
-3.16
-1.92
-2.79
-4.50
-5.55
-5.09
-3.69
-2.72
-3.36
-5.16
-6.06
-3.71
3.68
15.71
29.94
42.70
50.70
52.01
46.64
36.09
22.59
8.76
-3.56
-13.25
-20.14
-24.35
-25.96
-25.24
-22.62
-19.29
-16.34
-15.05
-15.48
-16.87
-17.76
-16.63
-13.05
-7.28
-0.57
6.14
12.21
17.43
21.57
23.66
22.70
18.15
10.84
2.90
-2.96
-4.87
-2.65
1.79
5.31
5.48
1.29
-5.35
-11.43
-14.43
-13.51
-10.38
-7.50
-6.93
-8.32
-10.12
-10.04
-7.07
-1.99
3.12
6.41
7.47
7.01
6.51
6.63
7.18
7.13
5.50
1.57
-4.29
-11.25
-17.99
-22.94
-24.66
-22.08
-15.27
-5.29
6.12
16.79
25.35
30.78
32.52
29.80
22.02
9.17
-7.12
-23.49
-35.76
-40.47
-36.46
-25.32
-11.07
2.00
11.02
15.30
16.18
15.56
14.67
13.39
11.46
8.91
7.20
7.64
10.70
14.80
17.37
16.44
12.19
7.20
4.57
5.85
9.66
12.38
10.61
3.25
-7.01
-15.99
-20.23
-19.56
-16.39
-13.87
-13.68
-14.54
-13.68
-8.76
-0.31
8.62
13.80
12.98
7.07
-0.02
-3.87
-2.44
3.34
9.60
12.65
10.79
5.46
-0.14
-2.70
-1.10
3.20
7.52
9.34
8.35
5.73
3.20
1.66
1.07
0.59
-0.28
-1.20
-0.87
1.91
7.15
13.16
17.46
17.83
13.38
4.71
-6.20
-17.51
-27.56
-35.01
-39.33
-40.67
-40.00
-38.50
-37.16
-35.62
-32.61
-26.52
-17.37
-7.33
-0.13
0.91
-4.33
-12.42
-17.75
-15.67
-4.86
11.90
29.67
43.52
50.56
50.25
43.83
33.22
20.10
6.71
-4.66
-12.15
-14.47
-12.12
-6.84
-0.86
4.63
9.22
13.30
17.02
19.55
19.45
15.79
9.00
0.66
-6.60
-11.08
-12.45
-11.90
-11.00
-10.61
-10.55
-9.94
-8.31
-5.83
-3.44
-1.84
-1.39
-1.83
-2.45
-3.35
-4.59
-6.06
-6.90
-5.64
-1.07
6.99
16.33
23.89
26.40
22.45
12.66
-0.01
-12.28
-21.15
-24.74
-22.58
-14.67
-2.01
13.73
29.12
40.20
43.47
38.03
26.36
13.19
3.56
-0.14
1.37
4.75
6.74
5.90
2.94
-0.19
-2.27
-3.31
-4.51
-6.73
-9.54
-11.59
-11.53
-8.93
-4.35
0.99
6.08
9.92
11.62
10.26
5.73
-0.96
-7.42
-10.85
-10.22
-6.58
-3.58
-4.59
-11.04
-21.13
-30.73
-35.74
-34.08
-27.02
-17.43
-8.72
-2.78
-0.13
-0.29
-2.92
-7.44
-12.79
-16.84
-17.02
-11.80
-1.78
9.77
18.63
21.56
18.11
11.08
4.51
1.96
3.76
7.73
10.54
10.31
8.15
6.74
8.82
14.70
22.15
26.64
24.64
15.27
0.83
-13.86
-24.13
-27.32
-23.87
-15.80
-6.15
2.95
10.54
16.35
20.33
22.04
21.31
17.83
12.10
5.13
-1.85
-7.71
-11.82
-14.06
-14.85
-14.56
-14.06
-13.55
-12.72
-11.02
-8.21
-4.97
-2.53
-2.17
-3.77
-5.85
-6.01
-2.54
4.44
12.70
19.14
21.67
19.86
15.14
9.25
3.43
-2.06
-7.45
-12.44
-16.24
-17.83
-16.65
-12.92
-7.81
-2.59
1.49
3.51
3.07
0.20
-3.80
-6.85
-6.55
-1.81
6.93
17.26
26.16
31.65
33.08
31.53
28.58
25.52
22.47
19.26
15.47
11.14
6.97
3.38
1.04
-0.02
0.20
0.84
0.78
-1.64
-7.26
-15.06
-22.62
-26.80
-25.71
-19.83
-12.11
-5.91
-3.38
-4.38
-6.71
-8.09
-6.90
-3.38
1.45
6.65
12.17
18.23
24.31
28.84
28.89
22.50
9.13
-8.91
-27.84
-43.58
-53.53
-57.24
-55.51
-50.34
-43.16
-35.47
-28.15
-21.93
-17.22
-13.76
-10.70
-6.42
-0.30
7.23
14.08
17.71
16.11
9.08
-1.16
-11.40
-18.01
-18.99
-14.40
-6.72
0.89
6.17
8.61
10.29
13.48
19.60
27.49
34.46
37.10
33.94
26.15
16.77
9.57
6.38
6.93
8.63
8.60
4.91
-2.49
-11.74
-20.30
-25.54
-26.57
-23.47
-17.47
-9.64
-0.83
8.29
16.69
22.41
23.48
18.60
8.93
-2.19
-10.03
-10.79
-3.56
9.30
23.12
33.76
38.58
37.63
31.98
22.96
11.70
-0.66
-11.94
-19.57
-21.30
-17.24
-9.60
-2.42
1.21
0.77
-1.67
-3.16
-2.26
0.66
3.13
3.53
1.90
0.30
0.78
4.19
9.12
12.95
14.09
12.09
8.15
3.57
-1.56
-8.02
-16.69
-27.02
-36.70
-41.90
-39.57
-29.05
-12.94
3.73
15.71
19.52
14.78
3.80
-8.94
-19.24
-23.86
-21.89
-15.17
-7.01
-1.34
-0.21
-3.25
-7.31
-8.79
-5.22
2.61
11.35
17.57
19.37
18.13
16.65
16.80
17.89
17.09
11.62
1.35
-10.13
-17.28
-15.24
-3.19
15.40
33.91
46.39
49.58
43.69
31.92
17.76
3.56
-9.42
-19.99
-26.62
-27.49
-21.77
-11.27
-0.03
6.71
5.76
-2.69
-14.56
-24.44
-28.27
-25.18
-17.66
-9.29
-3.15
-0.09
0.72
0.94
1.78
3.93
7.38
11.49
15.38
17.83
17.82
14.94
9.89
4.19
-0.31
-2.61
-3.27
-3.33
-4.12
-5.84
-7.51
-7.77
-6.00
-2.96
-0.12
0.79
-0.26
-2.31
-3.53
-2.92
-1.14
0.39
0.18
-1.73
-4.08
-4.96
-3.88
-1.76
-0.74
-2.67
-7.87
-14.26
-18.63
-18.83
-14.50
-7.76
-1.61
1.66
1.65
-0.17
-1.60
-1.08
1.83
6.52
11.28
14.68
15.90
14.72
11.83
8.02
4.07
0.46
-2.71
-5.67
-8.37
-10.65
-12.33
-13.08
-13.12
-13.05
-13.15
-13.20
-12.77
-10.88
-7.01
-1.34
5.15
11.26
15.98
18.50
18.73
16.93
14.10
11.05
8.77
7.59
6.96
5.84
3.74
0.98
-0.96
-0.47
3.24
9.11
15.00
18.52
18.69
16.02
12.42
9.75
9.15
10.16
11.75
12.37
10.75
6.68
0.46
-6.32
-11.73
-13.92
-11.83
-5.93
2.09
9.47
13.80
13.43
8.64
0.92
-6.79
-12.15
-13.61
-11.38
-7.27
-3.70
-2.87
-5.66
-11.58
-19.04
-26.16
-31.40
-33.85
-33.57
-30.72
-26.00
-19.89
-13.14
-6.17
0.36
5.74
9.26
10.84
10.78
10.11
9.50
9.21
8.29
5.57
0.19
-7.14
-14.74
-19.82
-20.67
-17.11
-10.78
-4.24
0.61
2.75
2.73
1.41
-0.57
-3.31
-6.54
-9.31
-10.08
-6.95
0.50
10.86
20.45
25.38
23.01
13.98
1.53
-9.55
-15.22
-14.02
-7.17
2.26
10.65
15.00
14.15
9.10
2.31
-2.58
-3.06
1.17
7.74
13.15
14.42
10.89
4.59
-1.38
-4.28
-4.04
-2.38
-1.65
-3.18
-5.96
-7.82
-6.66
-2.26
4.05
9.74
13.07
13.79
13.26
13.28
14.37
15.08
12.53
4.45
-8.67
-22.44
-30.01
-26.08
-9.92
13.16
33.67
42.92
37.71
21.41
2.45
-10.72
-13.72
-7.79
1.76
9.17
11.13
7.99
2.34
-2.62
-5.00
-4.69
-2.79
-1.11
-0.80
-2.44
-5.25
-8.18
-10.10
-10.74
-10.61
-10.54
-10.94
-11.22
-9.99
-5.95
0.91
9.35
16.98
21.51
21.84
17.89
10.98
2.51
-5.89
-12.83
-16.76
-16.84
-13.22
-7.14
-1.14
2.71
3.14
0.80
-2.43
-4.64
-4.93
-3.67
-1.59
0.46
2.69
5.47
9.21
13.58
17.54
19.94
19.82
17.21
12.71
7.73
3.26
-0.18
-2.77
-5.31
-8.12
-10.70
-11.71
-9.95
-4.73
2.52
9.50
13.73
13.99
11.01
6.66
2.82
-0.06
-2.38
-5.53
-9.84
-14.65
-18.51
-19.99
-18.91
-15.74
-11.85
-8.40
-6.01
-4.70
-4.05
-3.81
-3.80
-4.26
-5.33
-6.80
-7.74
-7.29
-4.79
-0.60
3.76
6.70
6.87
4.60
1.14
-1.62
-2.90
-2.91
-2.46
-2.34
-2.22
-1.74
-0.66
-0.18
-1.47
-4.70
-8.42
-9.69
-6.62
0.49
8.56
13.53
12.78
7.00
-0.57
-6.17
-8.04
-7.18
-5.80
-5.81
-6.95
-7.58
-5.67
-0.73
5.93
12.13
15.99
17.10
15.83
13.19
9.67
5.45
0.83
-3.42
-5.71
-5.09
-1.98
1.36
2.14
-1.44
-8.66
-16.24
-20.13
-17.74
-10.02
-0.31
7.37
10.72
10.00
7.31
4.64
2.44
-0.01
-3.76
-8.42
-12.36
-13.56
-11.36
-6.96
-2.61
-0.56
-1.19
-3.51
-6.01
-7.55
-8.00
-7.49
-5.86
-2.55
2.58
9.06
15.09
18.61
17.94
13.13
6.05
-0.38
-3.24
-1.41
4.58
12.26
19.18
23.13
23.30
20.22
15.04
9.32
4.05
-0.41
-4.35
-8.13
-11.66
-14.57
-16.14
-15.64
-12.90
-8.49
-3.43
0.90
3.40
3.86
2.73
0.92
-1.21
-3.33
-5.77
-8.45
-10.94
-12.25
-11.42
-8.24
-3.33
1.59
4.70
4.51
1.21
-3.49
-6.70
-5.72
0.69
11.17
22.18
29.61
30.74
26.09
18.98
13.99
14.26
19.82
27.99
34.65
36.88
34.14
27.90
20.34
12.24
2.75
-9.73
-25.38
-41.99
-54.96
-59.72
-54.03
-39.85
-22.54
-8.66
-2.57
-4.12
-9.40
-12.90
-11.36
-4.63
3.96
10.62
13.07
11.55
8.18
5.02
3.13
2.12
1.30
0.45
-0.12
-0.20
-0.76
-3.96
-11.56
-22.96
-35.38
-44.41
-46.32
-40.02
-27.48
-12.99
-0.82
6.29
8.41
7.20
5.09
4.14
5.44
9.37
15.44
22.66
29.43
33.98
34.49
30.47
23.19
15.31
9.66
8.21
11.16
16.74
22.33
25.93
26.71
25.31
22.69
19.76
16.61
12.99
8.54
3.80
-0.24
-2.80
-3.97
-5.02
-7.49
-12.58
-20.69
-30.98
-41.97
-51.68
-58.24
-60.30
-57.46
-50.50
-41.60
-33.20
-26.95
-22.75
-18.94
-13.41
-5.21
4.46
12.79
17.34
17.54
15.60
14.97
18.26
25.35
33.66
39.39
40.34
36.42
29.87
23.26
18.44
15.99
15.67
16.77
18.46
19.75
19.21
15.53
8.02
-2.67
-14.70
-25.89
-33.95
-37.49
-35.99
-30.11
-21.74
-13.51
-7.64
-5.06
-4.53
-3.05
2.37
12.31
24.38
34.11
37.54
33.38
24.00
13.42
5.84
3.14
4.87
8.36
10.77
10.13
6.25
0.90
-3.48
-5.03
-3.73
-1.30
-0.70
-4.12
-11.71
-21.69
-30.57
-35.63
-35.67
-31.83
-25.79
-18.86
-11.43
-3.25
5.60
14.18
20.63
23.55
22.42
18.15
12.39
6.55
1.21
-4.29
-10.50
-17.49
-23.68
-26.81
-24.97
-18.33
-9.27
-1.43
2.44
2.12
-0.27
-1.21
1.61
7.82
14.53
18.19
17.08
11.99
6.10
2.31
1.68
2.81
3.21
1.08
-3.53
-9.17
-14.37
-18.22
-20.77
-21.89
-20.63
-15.54
-5.72
7.91
22.02
31.86
34.20
28.29
16.63
3.56
-6.41
-10.42
-7.76
0.42
11.74
23.70
33.24
37.91
35.90
27.21
13.84
-0.74
-12.30
-17.93
-16.38
-9.36
0.02
7.93
11.63
10.10
4.27
-3.35
-10.28
-14.66
-16.21
-15.33
-12.99
-10.06
-6.65
-2.95
1.12
4.78
7.30
7.42
4.59
-1.31
-9.53
-18.22
-25.29
-28.52
-27.12
-21.47
-13.49
-5.78
-0.34
2.18
2.65
2.47
3.13
5.06
8.48
13.22
18.99
25.29
31.06
34.71
34.18
28.02
15.63
-1.67
-20.98
-38.76
-51.38
-57.00
-55.03
-47.11
-35.43
-22.70
-11.39
-3.00
1.84
3.75
3.79
3.55
4.25
6.53
9.67
12.72
14.34
13.72
10.89
6.59
2.41
0.16
1.88
8.52
19.55
32.17
42.14
45.64
40.81
29.62
16.42
5.99
1.26
1.78
4.94
7.34
7.75
7.16
7.77
10.76
15.25
18.48
17.48
11.66
2.87
-4.78
-8.25
-6.43
-1.54
2.81
3.16
-1.89
-10.95
-21.33
-29.88
-34.85
-35.58
-32.53
-26.14
-16.94
-6.37
3.50
9.92
10.97
6.25
-2.04
-9.99
-13.49
-10.15
-0.49
12.65
24.69
31.98
32.64
26.99
16.84
4.49
-8.02
-19.29
-27.73
-32.18
-31.91
-27.47
-20.72
-14.54
-11.68
-12.93
-17.20
-21.41
-23.11
-21.25
-16.91
-12.13
-8.66
-6.78
-5.18
-2.78
1.07
5.19
8.14
8.59
6.52
3.27
0.70
0.70
3.81
9.57
16.10
21.44
23.89
22.95
19.03
13.46
7.40
1.50
-3.43
-6.72
-7.44
-5.04
-0.08
5.49
8.78
7.69
1.87
-6.26
-13.60
-17.58
-17.46
-14.84
-11.79
-9.66
-8.12
-6.11
-2.25
3.41
9.79
15.39
19.14
21.11
21.72
21.14
18.78
13.92
5.79
-4.52
-14.45
-20.71
-20.22
-12.16
1.92
18.05
31.75
39.24
39.05
32.02
20.41
7.64
-3.59
-11.55
-15.83
-16.99
-16.39
-15.00
-13.31
-11.62
-9.65
-7.73
-6.14
-5.34
-5.34
-5.57
-5.11
-3.34
-0.37
3.26
6.38
8.25
8.46
7.09
4.78
2.19
0.27
-0.64
-0.33
0.40
0.81
0.22
-1.28
-2.91
-3.54
-2.52
-0.12
2.85
5.25
6.57
6.96
6.73
6.47
6.17
5.73
5.07
4.49
4.26
4.89
6.58
9.20
12.19
14.53
15.27
13.46
8.93
2.05
-5.88
-13.16
-18.21
-19.82
-18.15
-13.82
-8.45
-3.15
1.13
4.32
6.60
8.09
8.69
7.96
5.88
2.94
0.36
-0.46
1.42
5.77
11.07
15.46
17.10
15.41
10.66
4.54
-1.24
-5.18
-6.29
-4.77
-1.23
2.99
6.50
7.84
6.34
2.19
-3.67
-9.27
-13.18
-14.05
-12.02
-7.99
-3.43
0.31
2.66
3.51
3.52
3.08
2.84
3.04
4.29
6.84
10.57
14.76
18.26
20.13
19.66
17.24
13.37
8.88
4.42
0.50
-2.26
-3.10
-1.58
1.79
5.70
7.96
7.01
2.53
-4.18
-10.71
-15.11
-16.54
-16.17
-15.82
-17.08
-20.22
-24.15
-27.21
-28.32
-27.42
-24.87
-21.55
-17.54
-13.09
-8.44
-4.55
-2.44
-2.71
-4.77
-6.79
-6.98
-4.27
0.33
4.88
7.44
7.34
5.42
3.07
1.65
1.18
1.33
1.52
1.99
3.19
5.24
7.38
8.28
7.05
3.66
-0.24
-3.14
-4.08
-3.39
-2.70
-3.20
-5.28
-7.84
-9.33
-8.26
-4.58
0.82
6.03
8.92
8.53
4.60
-1.46
-7.61
-11.64
-12.45
-10.51
-7.30
-4.72
-3.56
-3.79
-4.43
-4.81
-4.64
-4.36
-4.25
-4.10
-3.54
-2.03
0.32
2.96
4.92
5.37
4.08
1.50
-1.28
-3.03
-2.82
-1.02
1.49
3.08
2.73
0.48
-2.82
-5.56
-6.68
-5.80
-3.69
-1.45
0.15
1.15
2.06
3.24
4.38
4.73
3.61
1.00
-2.05
-4.07
-3.85
-1.39
2.07
4.88
5.49
3.67
0.26
-3.18
-5.44
-5.97
-4.84
-2.49
0.88
4.54
7.63
8.90
7.50
3.32
-2.43
-7.65
-10.35
-9.33
-5.10
0.96
6.69
10.49
11.27
8.96
4.18
-1.96
-7.87
-12.09
-13.11
-10.28
-3.89
4.77
13.62
20.27
22.62
19.96
12.86
3.62
-5.08
-10.95
-13.01
-11.86
-9.07
-6.22
-3.94
-2.11
0.33
3.88
8.29
12.34
14.40
13.50
9.71
4.33
-1.16
-5.27
-7.39
-7.62
-6.59
-5.27
-4.23
-3.77
-3.57
-3.09
-1.58
1.06
4.31
7.10
8.20
7.08
3.91
-0.15
-3.93
-6.38
-7.32
-6.94
-5.79
-4.42
-3.09
-2.19
-1.78
-2.03
-2.72
-3.58
-4.20
-4.29
-3.83
-2.64
-0.82
1.72
4.60
7.14
8.26
7.20
3.85
-0.89
-5.21
-7.55
-6.95
-3.93
0.05
3.08
4.07
3.13
1.22
-0.40
-1.37
-1.95
-2.95
-4.74
-6.76
-7.92
-7.09
-4.06
0.37
4.72
7.64
8.43
7.34
5.30
3.20
1.61
0.45
-0.62
-1.96
-3.42
-4.60
-4.78
-3.66
-1.62
0.41
1.35
0.76
-1.09
-3.01
-3.87
-3.06
-0.91
1.40
2.95
3.21
2.65
1.97
1.59
1.41
1.19
0.81
0.49
0.70
1.39
2.13
2.06
0.73
-1.69
-4.48
-6.71
-7.95
-8.16
-8.01
-7.74
-7.38
-6.49
-4.63
-1.89
1.19
3.56
4.54
3.74
1.82
-0.01
-0.54
0.87
3.58
6.41
7.82
7.41
5.69
4.17
4.10
5.66
8.10
9.89
10.05
8.17
4.97
1.41
-1.61
-3.50
-4.25
-3.87
-2.84
-1.45
-0.23
0.52
0.50
-0.34
-1.77
-3.52
-4.87
-5.31
-4.31
-1.95
1.03
3.46
4.29
3.36
1.18
-0.99
-2.21
-1.96
-0.47
1.81
4.42
7.00
9.37
11.18
12.24
12.29
11.43
9.79
7.70
5.46
3.30
1.65
0.76
0.73
0.93
0.50
-1.31
-4.29
-7.19
-8.67
-7.94
-5.88
-4.14
-4.41
-6.87
-10.34
-12.83
-13.00
-11.08
-8.20
-5.88
-4.64
-4.20
-3.77
-3.05
-2.25
-1.89
-2.24
-2.80
-3.03
-2.37
-1.08
0.33
1.30
1.60
1.53
1.46
1.73
2.13
2.32
1.83
0.55
-1.18
-2.70
-3.09
-2.04
0.28
2.83
4.68
5.04
3.88
1.77
-0.56
-2.57
-4.29
-5.68
-6.86
-7.33
-6.71
-4.82
-1.95
1.12
3.67
5.06
5.20
4.09
2.06
-0.38
-2.38
-3.06
-1.94
0.80
3.98
6.22
6.18
3.63
-0.63
-5.00
-7.86
-8.50
-6.95
-4.21
-1.23
1.08
2.57
3.42
3.94
4.40
4.61
4.52
3.91
3.09
2.42
2.43
3.22
4.49
5.68
6.12
5.70
4.62
3.74
3.71
4.76
6.23
6.84
5.65
2.41
-1.73
-5.33
-7.16
-6.97
-5.62
-4.27
-3.70
-3.63
-3.42
-2.27
-0.36
1.52
2.30
1.46
-0.71
-3.41
-5.76
-7.46
-8.37
-8.73
-8.49
-7.70
-6.43
-4.85
-3.48
-2.52
-2.23
-2.39
-2.79
-3.21
-3.68
-4.35
-5.21
-6.15
-6.56
-6.01
-4.16
-1.29
1.89
4.48
5.78
5.81
4.93
3.98
3.45
3.75
4.84
6.70
9.27
12.11
14.58
15.56
14.32
10.61
5.44
0.54
-2.36
-2.32
0.12
3.47
5.86
6.23
4.40
1.29
-1.68
-3.38
-3.10
-1.13
1.83
4.78
6.86
7.45
6.41
4.08
1.10
-1.53
-3.41
-4.22
-4.19
-3.54
-2.45
-1.00
0.78
2.44
3.54
3.45
2.21
0.35
-1.09
-1.28
-0.25
1.19
1.61
0.22
-3.00
-6.88
-10.04
-11.25
-10.04
-6.75
-2.25
2.24
5.62
6.94
5.98
2.97
-1.16
-5.01
-7.39
-7.47
-5.31
-1.53
2.50
5.60
6.86
6.16
4.32
2.45
1.71
2.44
4.17
5.48
5.20
2.91
-0.76
-4.24
-6.28
-6.32
-4.99
-3.32
-2.39
-2.27
-2.41
-2.09
-0.97
0.21
0.37
-1.43
-4.89
-8.84
-11.67
-12.37
-11.22
-9.10
-7.24
-5.90
-4.77
-3.09
-0.83
1.25
1.85
0.15
-3.22
-6.78
-8.50
-7.38
-3.81
0.64
4.13
5.42
4.25
1.35
-2.48
-6.15
-8.99
-10.49
-10.39
-8.81
-6.16
-3.25
-0.57
1.43
2.92
4.19
5.48
6.78
7.79
8.30
8.16
7.92
7.93
8.52
9.43
9.99
9.59
7.92
5.36
2.67
0.86
0.24
0.59
1.05
1.00
0.46
0.03
0.67
2.61
5.53
8.27
9.77
9.46
7.44
4.46
1.32
-1.14
-2.76
-3.31
-2.95
-1.73
0.20
2.44
4.58
6.09
6.56
5.41
2.48
-2.13
-7.43
-11.97
-14.35
-13.78
-10.81
-6.66
-2.93
-0.37
1.00
1.80
2.66
3.57
4.28
4.39
4.01
3.39
2.87
2.22
1.14
-0.43
-2.16
-3.05
-2.55
-0.58
1.87
3.59
3.56
1.67
-1.10
-3.54
-4.53
-4.05
-2.71
-1.63
-1.49
-2.35
-3.56
-4.28
-4.11
-3.06
-1.70
-0.45
0.34
0.74
0.90
0.85
0.60
-0.01
-0.77
-1.48
-1.68
-1.30
-0.32
1.11
2.80
4.69
6.46
7.68
7.67
6.08
3.23
0.15
-1.85
-2.02
-0.58
1.41
2.89
3.14
2.39
1.23
0.33
-0.24
-0.90
-1.93
-3.46
-4.69
-4.78
-3.06
0.18
3.83
6.44
6.72
4.40
0.04
-4.76
-8.11
-8.22
-4.39
2.62
10.66
16.78
18.52
14.78
6.63
-3.15
-11.01
-14.18
-11.68
-4.57
4.30
11.81
15.33
13.90
8.09
-0.26
-8.45
-14.21
-15.81
-12.97
-6.67
1.02
7.65
11.25
10.83
6.97
1.34
-3.95
-7.23
-7.70
-5.91
-2.94
-0.01
2.26
3.99
5.34
6.44
6.77
5.82
3.21
-0.58
-4.40
-7.14
-7.98
-7.15
-5.33
-3.42
-2.04
-1.47
-1.65
-2.37
-3.39
-4.28
-4.66
-4.26
-3.16
-1.74
-0.71
-0.33
-0.39
-0.50
-0.19
0.27
0.38
-0.51
-2.33
-4.27
-5.19
-4.27
-1.83
1.05
2.59
1.93
-0.82
-4.43
-7.33
-8.44
-7.53
-5.27
-2.37
0.31
2.54
4.27
5.40
5.76
5.16
3.72
1.96
0.94
1.35
3.42
6.50
9.38
10.85
10.18
7.56
3.64
-0.29
-3.45
-5.23
-5.70
-5.07
-3.47
-1.36
1.07
3.23
4.61
4.61
3.08
0.18
-3.45
-6.71
-8.58
-8.30
-5.93
-2.15
1.66
4.45
5.47
4.74
2.96
1.08
0.09
0.27
1.45
2.89
3.82
3.85
2.78
0.99
-1.13
-3.03
-4.41
-5.03
-4.93
-4.28
-3.30
-2.28
-1.30
-0.54
0.26
1.15
2.27
3.27
3.65
2.99
1.14
-1.32
-3.74
-5.26
-5.56
-4.66
-3.10
-1.38
0.26
1.68
3.02
3.94
4.14
3.17
1.04
-1.79
-4.28
-5.45
-4.82
-2.39
0.85
3.94
5.89
6.32
5.27
2.97
-0.23
-4.01
-7.58
-10.04
-10.09
-7.12
-1.64
4.46
8.54
8.88
5.38
0.30
-3.62
-4.28
-1.69
2.17
4.92
5.14
3.36
1.11
0.24
1.12
3.07
4.56
4.37
2.53
-0.25
-2.81
-4.49
-4.88
-4.22
-2.88
-1.43
-0.62
-0.93
-2.62
-4.98
-6.95
-7.25
-5.29
-1.63
2.23
4.49
4.24
1.72
-1.27
-2.93
-2.10
0.62
3.60
5.00
3.91
0.99
-2.36
-4.48
-4.65
-3.11
-0.81
1.23
2.32
2.30
1.50
0.32
-0.85
-1.93
-2.79
-3.40
-3.73
-3.48
-2.57
-0.90
1.13
3.04
4.01
3.77
2.42
0.48
-1.06
-1.89
-1.75
-0.98
0.19
1.31
2.28
2.83
2.75
1.96
0.39
-1.71
-3.94
-5.63
-6.60
-6.69
-6.32
-6.08
-6.06
-6.46
-6.80
-6.82
-6.35
-5.57
-4.90
-4.37
-4.07
-3.51
-2.66
-1.39
-0.15
0.63
0.81
0.44
0.04
-0.11
0.53
1.92
4.04
6.47
8.56
9.70
9.37
7.47
4.42
1.45
-0.37
-0.01
2.64
6.53
10.21
12.12
11.86
9.84
7.52
5.82
5.04
4.70
3.78
1.80
-1.23
-4.33
-6.83
-8.08
-8.28
-7.86
-7.13
-6.50
-5.85
-5.15
-3.97
-1.98
1.13
5.09
9.09
12.05
12.86
11.22
7.74
3.72
0.62
-0.64
-0.18
1.09
2.06
2.00
1.21
0.33
0.39
1.87
4.65
7.80
10.14
10.97
9.75
6.99
3.34
-0.30
-3.14
-4.65
-4.58
-3.13
-0.92
0.77
0.92
-1.12
-4.94
-9.08
-11.42
-10.42
-5.62
1.60
8.68
13.27
13.81
10.65
5.16
-0.46
-4.50
-6.17
-5.52
-3.53
-1.04
0.71
1.08
0.16
-1.38
-2.35
-2.14
-0.71
1.04
2.11
1.82
0.58
-0.61
-0.63
0.90
3.42
5.99
7.33
7.23
5.70
3.73
1.90
0.76
0.44
0.51
0.80
0.79
0.48
0.03
-0.01
0.58
1.67
2.68
2.70
1.43
-0.98
-3.44
-4.98
-5.10
-4.03
-2.75
-1.82
-1.26
-0.28
1.68
4.73
7.75
9.29
8.37
4.88
0.01
-5.13
-9.26
-12.11
-13.34
-12.55
-9.47
-4.21
1.84
6.62
7.99
5.38
-0.20
-5.93
-9.16
-8.40
-4.04
1.68
6.68
9.24
9.30
7.72
5.59
3.48
1.37
-1.02
-3.95
-6.65
-8.19
-7.45
-4.31
0.21
4.10
5.23
2.81
-2.60
-8.89
-13.76
-15.64
-14.42
-11.19
-7.47
-4.56
-2.66
-1.76
-1.38
-1.54
-1.99
-2.41
-2.27
-0.92
1.55
4.35
5.78
4.81
1.16
-3.74
-7.72
-9.06
-7.08
-2.96
1.58
4.93
6.97
8.20
9.58
11.19
12.24
11.85
9.65
6.46
3.60
2.45
3.22
4.92
5.72
4.12
-0.14
-5.83
-10.70
-12.96
-11.54
-7.08
-1.03
4.85
9.15
11.46
11.79
10.84
8.97
6.47
3.29
-0.49
-4.42
-7.86
-9.91
-10.22
-8.61
-5.89
-3.06
-1.17
-0.50
-0.30
0.40
2.15
4.09
4.66
2.09
-3.56
-10.40
-14.95
-14.25
-8.22
0.55
7.31
8.38
2.84
-6.71
-15.78
-20.57
-19.54
-14.38
-8.10
-3.78
-2.67
-4.38
-7.39
-10.34
-12.54
-13.73
-14.33
-14.33
-13.81
-12.76
-11.28
-9.79
-8.67
-8.27
-8.71
-10.06
-11.91
-14.05
-15.88
-16.79
-16.35
-14.12
-10.23
-5.18
-0.08
3.89
5.59
4.59
1.50
-2.07
-3.97
-2.61
2.21
8.69
14.14
15.77
12.97
7.53
2.74
1.78
5.74
13.38
21.55
27.09
28.46
26.21
22.31
19.13
18.13
19.24
21.46
23.08
22.60
18.87
11.93
2.81
-6.83
-15.08
-20.90
-23.80
-24.24
-22.60
-19.13
-13.99
-7.84
-2.05
1.83
2.57
0.62
-2.34
-3.49
-1.21
4.19
10.52
14.63
14.85
11.70
8.11
7.45
12.11
21.80
33.77
44.36
50.35
51.03
47.32
41.76
36.17
31.41
26.81
21.35
14.60
7.17
0.33
-4.84
-7.95
-9.91
-11.91
-14.95
-19.49
-24.90
-30.53
-35.04
-37.90
-38.59
-37.43
-35.13
-32.55
-30.28
-28.18
-25.66
-21.83
-16.43
-9.91
-3.64
1.05
3.46
3.36
1.61
-1.31
-4.63
-7.85
-10.11
-10.73
-9.04
-5.21
-0.38
4.44
8.30
11.35
13.98
16.42
18.24
18.41
16.41
12.63
8.64
5.89
5.25
5.69
5.42
3.08
-1.02
-5.15
-6.91
-4.59
1.25
8.66
14.66
16.93
14.87
9.19
1.79
-5.23
-10.11
-12.21
-11.68
-9.49
-7.12
-6.07
-7.69
-11.94
-17.29
-20.87
-20.24
-14.12
-3.69
8.27
18.19
23.49
23.66
19.59
13.12
5.90
-0.65
-5.98
-9.63
-11.51
-11.53
-9.52
-5.26
1.52
10.55
20.58
29.32
34.07
33.21
27.38
19.06
10.81
4.23
-1.01
-6.12
-11.70
-17.00
-20.25
-20.62
-18.54
-16.08
-15.33
-17.29
-21.35
-25.34
-27.11
-25.17
-19.26
-10.17
0.22
9.99
17.08
20.39
19.97
16.89
12.82
8.75
4.93
1.13
-2.54
-5.31
-5.87
-3.63
0.56
4.86
7.21
6.99
5.49
4.98
7.37
12.25
17.59
20.34
18.34
11.31
1.07
-9.31
-16.69
-18.72
-14.37
-4.32
9.06
22.40
32.09
35.47
32.18
24.00
14.06
5.43
-0.47
-4.00
-6.43
-8.57
-9.81
-8.81
-4.49
2.48
9.69
14.06
13.33
7.50
-1.37
-10.28
-16.60
-18.99
-17.37
-13.06
-7.20
-1.00
4.59
8.66
10.43
9.48
6.18
1.82
-1.88
-3.16
-1.40
2.83
7.35
9.43
6.73
-1.04
-11.72
-21.73
-27.23
-26.56
-20.87
-13.51
-8.19
-6.94
-9.55
-13.68
-16.91
-17.39
-15.33
-11.65
-7.62
-4.36
-2.40
-2.38
-4.41
-8.48
-13.36
-17.59
-19.62
-18.74
-15.53
-11.07
-6.68
-2.78
0.52
3.59
6.29
8.73
10.92
13.19
15.95
18.90
20.86
19.97
15.03
6.63
-2.65
-9.05
-10.04
-5.05
3.34
11.75
17.02
18.06
15.33
10.30
4.75
-0.27
-3.33
-3.37
0.66
8.17
16.96
23.35
23.93
17.62
6.37
-5.15
-12.55
-12.91
-6.55
4.07
15.13
22.90
24.84
19.60
8.22
-6.00
-18.02
-23.27
-19.82
-9.65
1.61
8.31
7.48
1.10
-6.22
-9.99
-8.89
-5.29
-2.90
-3.65
-5.93
-6.02
-0.91
9.25
21.14
30.21
33.69
31.69
26.64
21.47
17.79
16.05
15.37
14.89
14.23
12.97
10.83
7.29
2.05
-5.42
-15.01
-26.14
-37.48
-47.36
-54.05
-56.40
-54.50
-49.70
-44.21
-39.81
-37.40
-36.12
-34.69
-31.82
-27.18
-21.38
-15.25
-9.59
-4.06
1.84
8.81
16.66
23.73
28.09
27.96
23.37
16.34
10.12
7.54
9.73
15.45
21.66
25.28
24.32
19.14
11.50
3.90
-1.94
-5.37
-6.42
-5.40
-2.40
1.78
5.97
8.41
8.24
5.71
2.35
0.67
1.86
5.88
10.88
15.24
18.11
20.24
22.95
26.65
30.36
32.23
31.04
26.56
20.35
14.22
9.16
4.91
0.34
-5.31
-12.18
-19.16
-24.48
-26.33
-23.90
-17.92
-10.39
-4.22
-1.57
-3.60
-9.58
-17.90
-26.67
-34.42
-40.26
-43.37
-43.54
-40.34
-34.44
-26.73
-18.72
-11.51
-5.68
-1.19
2.44
5.24
6.92
7.20
6.22
4.28
2.03
0.18
-0.53
1.12
6.35
16.07
29.21
42.64
51.45
51.46
41.42
23.90
4.26
-12.17
-21.89
-25.03
-23.60
-20.14
-15.88
-10.57
-4.13
3.05
9.33
12.91
13.00
10.42
6.80
3.79
1.93
0.75
-0.28
-1.72
-3.31
-4.37
-3.95
-1.47
3.15
9.07
14.33
16.77
14.56
8.15
-0.28
-6.97
-8.50
-4.06
4.46
12.61
16.11
12.46
2.46
-10.13
-20.63
-25.37
-23.04
-15.24
-5.49
2.87
7.54
8.22
6.33
4.39
4.39
6.33
8.45
8.06
3.81
-3.70
-11.03
-14.11
-10.31
-0.13
12.70
23.80
29.75
30.24
27.28
23.75
21.59
20.65
19.76
17.69
14.12
9.65
5.31
1.83
0.10
0.87
4.37
10.03
15.63
18.29
15.42
7.15
-3.75
-12.72
-16.08
-13.22
-6.40
-0.01
2.76
0.78
-4.29
-9.85
-13.80
-15.55
-15.78
-15.11
-14.12
-12.60
-10.42
-7.56
-4.10
0.11
5.27
11.33
17.64
22.19
23.16
19.37
11.61
2.53
-4.62
-7.23
-4.67
1.78
9.07
14.53
15.99
12.71
5.25
-4.69
-14.32
-20.73
-21.42
-16.19
-6.94
2.02
6.36
3.41
-6.50
-20.10
-33.13
-41.69
-44.23
-41.20
-35.04
-28.28
-22.94
-20.04
-19.45
-20.72
-22.94
-25.39
-27.07
-27.34
-25.42
-20.65
-12.79
-2.04
9.96
20.71
27.00
26.80
20.02
9.22
-1.44
-8.19
-9.25
-6.01
-1.69
0.22
-1.69
-6.26
-10.77
-12.74
-11.83
-9.41
-7.74
-7.65
-8.45
-8.33
-5.96
-1.44
3.63
6.92
7.24
4.84
1.53
-0.61
-0.19
2.72
6.69
10.12
11.71
11.50
10.38
9.89
11.00
13.91
18.07
22.33
25.53
26.77
25.94
23.30
19.86
16.62
14.43
13.64
14.06
15.31
16.94
18.76
20.52
22.37
24.13
25.43
25.84
25.21
23.77
22.14
21.26
21.68
23.72
27.06
30.94
34.12
35.33
33.94
29.91
24.15
18.15
13.60
11.31
11.13
11.65
10.27
4.93
-5.43
-19.40
-34.10
-45.95
-52.43
-53.19
-49.95
-45.68
-42.66
-42.01
-42.76
-43.30
-41.83
-37.59
-30.73
-22.06
-13.12
-5.35
-0.52
0.09
-3.96
-11.18
-18.92
-24.07
-24.67
-20.96
-15.05
-10.29
-8.89
-11.06
-14.94
-17.49
-16.87
-12.99
-7.82
-3.72
-1.75
-1.44
-1.30
-0.32
1.62
3.62
4.86
5.24
5.79
7.58
11.23
16.02
20.34
22.74
22.63
20.63
17.82
15.50
14.28
14.27
15.25
16.51
17.38
16.83
14.59
10.87
6.63
3.11
0.89
0.25
0.51
1.09
1.54
1.97
2.52
3.19
3.88
4.49
5.41
7.21
10.47
14.80
19.12
21.65
21.41
18.84
15.43
13.37
14.02
17.26
21.62
24.84
25.29
22.35
17.02
11.01
6.46
4.80
6.45
10.70
16.03
21.05
24.82
27.53
29.48
31.21
32.22
31.58
28.22
21.20
9.79
-7.54
-32.87
-68.41
-114.25
-167.35
-220.61
-264.77
-291.43
-295.92
-278.75
-244.36
-199.18
-149.03
-98.35
-50.30
-7.76
26.47
50.27
63.17
67.42
66.91
66.02
67.63
72.26
78.29
83.17
85.23
83.95
80.42
75.86
71.40
66.92
61.84
55.42
47.74
39.82
33.05
28.79
26.99
26.88
26.77
25.27
22.10
18.21
15.15
13.81
14.13
14.39
12.96
9.00
3.23
-2.09
-4.84
-3.90
0.26
6.21
12.06
16.71
19.64
21.01
21.22
20.30
18.30
14.86
10.32
5.14
0.91
-0.90
0.85
5.87
11.93
16.14
15.96
10.98
2.89
-4.80
-9.28
-9.74
-7.38
-4.80
-3.32
-2.76
-1.35
2.61
9.24
16.64
22.04
23.14
19.49
13.03
6.35
1.99
0.83
2.12
4.36
6.27
7.68
9.00
10.73
12.57
13.93
13.92
12.42
10.08
7.86
6.79
6.96
8.11
9.35
9.89
9.22
7.28
4.61
1.86
-0.40
-1.95
-2.88
-3.77
-5.07
-7.10
-9.25
-10.40
-9.37
-5.76
-0.40
4.93
7.94
7.25
2.71
-4.05
-10.49
-14.25
-14.00
-10.43
-5.56
-1.61
0.25
0.29
-0.02
0.78
3.26
7.21
11.50
15.41
18.19
19.78
19.74
17.41
12.29
4.30
-5.24
-14.29
-20.49
-22.63
-21.00
-17.47
-14.32
-13.05
-14.10
-16.61
-19.64
-22.30
-24.06
-24.43
-23.08
-20.02
-15.79
-11.72
-8.95
-8.50
-9.79
-11.44
-12.09
-11.30
-10.26
-10.61
-13.67
-18.70
-23.69
-26.13
-24.67
-19.86
-13.43
-7.39
-2.71
0.32
1.85
1.67
-0.41
-4.72
-10.78
-17.04
-21.58
-22.73
-19.95
-13.77
-5.72
2.38
9.14
13.64
15.88
16.07
14.87
12.97
11.42
10.91
12.08
14.92
18.58
21.79
23.08
21.99
19.05
16.16
15.02
16.41
19.57
22.61
23.45
20.63
14.48
6.02
-3.04
-11.31
-17.68
-21.57
-22.98
-22.47
-21.24
-20.54
-21.24
-22.89
-24.16
-23.36
-19.65
-13.57
-6.44
-0.22
4.22
6.99
8.88
10.30
10.86
9.69
6.25
1.77
-1.66
-1.70
2.08
8.21
13.64
15.37
12.39
5.66
-2.29
-9.36
-14.08
-16.02
-15.20
-11.84
-6.38
0.74
8.15
14.83
19.67
22.58
23.80
23.89
23.44
22.65
21.85
21.11
20.89
21.15
21.98
22.78
22.77
21.25
17.80
13.12
8.65
6.71
8.95
15.60
24.34
31.71
34.91
33.31
29.24
25.97
26.13
29.95
35.63
41.08
45.24
49.07
54.09
61.52
70.60
79.47
85.69
87.49
84.00
74.50
58.01
32.65
-3.04
-49.27
-103.30
-159.76
-211.17
-249.58
-268.83
-265.72
-241.36
-200.33
-150.14
-98.79
-53.28
-18.05
5.69
19.39
26.17
29.10
30.47
31.10
30.91
29.56
27.29
25.32
24.65
25.91
28.61
31.93
35.03
37.73
40.76
45.01
50.70
56.60
60.17
58.16
48.74
32.77
13.69
-3.00
-12.68
-13.42
-7.10
1.72
8.12
9.80
7.80
5.69
7.08
12.68
20.02
24.51
22.63
14.07
2.21
-7.60
-10.77
-5.55
5.76
18.92
29.48
35.08
36.24
35.55
35.86
39.35
46.77
57.15
68.55
78.54
84.76
85.90
81.91
74.29
65.61
57.97
51.72
45.25
35.32
18.28
-8.31
-45.13
-90.69
-142.03
-195.17
-245.33
-286.92
-314.77
-325.18
-317.22
-293.53
-258.98
-219.40
-179.28
-141.02
-104.40
-68.18
-31.39
5.54
40.33
69.65
90.36
100.91
101.81
95.88
86.78
77.91
71.29
67.50
66.24
66.67
68.18
69.76
70.15
67.89
62.57
54.89
46.84
40.75
37.66
37.35
37.91
37.52
35.28
31.84
28.83
27.38
27.53
27.78
26.43
22.34
16.07
9.15
3.85
1.83
3.29
7.17
11.29
13.68
12.97
9.73
5.66
2.62
1.68
2.28
3.04
2.62
1.22
0.19
1.75
6.99
14.54
21.62
24.96
23.14
17.17
10.06
4.84
2.82
3.46
4.74
5.36
5.24
5.75
7.81
11.45
14.97
16.30
14.35
9.75
5.40
4.09
7.38
13.99
20.71
23.99
22.12
16.05
8.58
2.29
-2.66
-8.00
-15.89
-26.78
-38.65
-47.59
-50.52
-47.12
-39.92
-32.68
-27.93
-25.37
-22.50
-16.93
-8.66
0.35
7.08
10.22
10.55
10.65
12.46
16.01
19.44
20.20
17.13
10.60
2.73
-4.03
-7.92
-8.56
-6.80
-4.19
-2.76
-4.02
-8.36
-14.35
-19.50
-20.77
-16.33
-6.24
7.38
21.46
32.91
39.41
39.97
34.92
25.41
13.61
2.03
-7.33
-13.82
-18.11
-22.20
-27.14
-32.62
-36.85
-37.61
-34.25
-28.11
-21.78
-17.33
-15.20
-14.10
-12.63
-10.22
-7.28
-4.63
-2.19
0.81
5.31
10.86
16.35
20.22
22.20
23.21
24.66
26.90
28.67
27.94
23.18
15.17
6.43
0.83
1.52
9.33
22.92
38.45
51.04
55.77
49.70
32.87
8.75
-16.58
-36.99
-48.15
-49.32
-42.65
-32.17
-21.67
-13.50
-8.34
-5.43
-4.03
-3.81
-5.30
-8.85
-13.98
-18.60
-19.96
-16.46
-8.46
1.20
9.63
14.89
17.81
20.10
22.63
24.20
22.01
14.37
2.27
-9.70
-15.97
-13.42
-3.27
8.99
17.07
17.26
11.01
3.48
1.10
7.10
19.90
34.46
45.08
48.82
46.53
41.93
38.19
36.00
32.70
23.98
7.32
-16.49
-42.69
-65.33
-78.99
-81.37
-73.22
-57.78
-39.17
-21.16
-6.82
2.00
4.44
1.10
-6.31
-15.06
-21.59
-23.01
-17.98
-7.87
4.03
13.10
16.16
12.98
6.48
1.16
0.03
3.18
7.21
8.27
4.46
-2.62
-8.96
-10.73
-6.52
1.55
10.17
16.73
20.79
23.17
24.60
23.68
18.04
6.51
-9.48
-24.72
-33.38
-31.84
-21.16
-6.43
5.66
10.21
7.02
-0.76
-8.06
-11.69
-11.08
-8.47
-6.54
-6.57
-8.17
-9.51
-9.60
-8.39
-6.90
-5.93
-5.43
-4.44
-1.88
2.20
6.78
10.35
12.75
14.63
17.66
22.82
29.57
36.15
40.33
40.99
37.95
32.08
24.31
15.05
4.63
-7.05
-19.65
-32.46
-43.81
-51.90
-54.26
-49.64
-38.56
-23.36
-7.92
4.25
11.39
13.74
12.68
9.72
5.96
2.05
-0.65
-0.47
3.91
12.00
21.64
29.25
32.43
30.99
26.56
21.34
16.34
11.25
5.21
-1.77
-8.02
-11.71
-11.98
-10.01
-8.14
-8.77
-12.00
-16.20
-18.96
-19.15
-17.62
-16.04
-15.62
-15.84
-14.82
-10.75
-3.61
4.49
10.44
12.04
9.27
4.15
-0.59
-3.53
-5.00
-6.15
-7.54
-8.48
-7.35
-2.63
5.53
15.40
24.21
29.46
30.20
27.17
22.56
18.47
16.42
16.11
16.32
14.90
10.27
2.56
-6.35
-13.42
-16.24
-14.28
-9.89
-6.64
-7.55
-12.93
-20.40
-26.08
-26.55
-20.69
-10.10
1.66
11.41
16.83
17.33
13.71
7.38
0.59
-4.29
-5.42
-2.25
4.12
10.53
13.30
9.93
-0.04
-14.21
-28.68
-39.51
-44.19
-41.79
-33.14
-19.99
-4.39
11.23
24.81
34.22
38.39
37.19
31.85
24.26
16.41
9.85
4.89
1.15
-2.55
-6.90
-11.74
-16.14
-18.79
-18.34
-14.36
-7.82
-0.43
5.54
8.78
8.76
6.30
2.66
-0.54
-2.16
-2.29
-1.49
-1.20
-2.23
-4.91
-8.48
-11.71
-13.48
-13.47
-12.49
-11.41
-11.10
-11.40
-11.58
-10.46
-7.56
-3.48
0.58
3.34
4.63
5.00
5.51
6.91
8.93
10.67
11.12
10.45
9.42
9.55
11.87
16.34
21.68
25.90
27.34
24.81
18.58
9.47
-0.77
-10.54
-17.81
-21.19
-19.59
-12.85
-2.08
10.82
22.81
30.97
32.70
27.02
15.07
-0.16
-14.60
-24.62
-28.29
-26.10
-20.07
-12.57
-5.12
1.99
8.96
16.03
22.56
27.21
28.37
25.35
18.48
9.26
-0.36
-8.87
-15.62
-20.90
-24.83
-27.41
-27.83
-25.21
-19.35
-11.62
-4.67
-1.36
-3.46
-10.15
-18.56
-24.69
-26.05
-22.67
-16.87
-11.87
-9.38
-8.65
-6.68
-0.72
9.69
21.80
30.87
32.53
24.93
10.00
-8.11
-24.64
-36.18
-41.01
-39.56
-33.17
-23.68
-13.23
-3.86
2.65
6.12
7.74
9.51
12.92
17.94
23.21
27.01
28.98
30.11
32.18
35.47
38.03
36.78
29.76
18.14
6.04
-1.48
-2.29
1.65
5.60
5.32
0.71
-3.95
-2.45
8.13
25.20
40.69
46.18
37.28
16.48
-8.06
-27.65
-37.23
-37.48
-32.84
-28.47
-26.81
-27.06
-26.60
-23.45
-18.00
-11.95
-7.61
-5.93
-6.38
-7.25
-7.35
-6.70
-6.00
-6.08
-6.49
-5.79
-1.82
6.68
19.23
33.48
45.66
52.45
51.75
44.11
32.06
18.99
7.78
-0.52
-6.49
-11.96
-18.20
-25.47
-32.39
-36.95
-37.15
-31.91
-21.60
-7.55
7.93
22.45
33.73
40.32
41.37
37.10
28.62
17.28
4.79
-7.43
-17.60
-24.06
-25.32
-21.41
-14.53
-8.20
-5.90
-8.74
-14.98
-21.15
-23.83
-21.82
-15.98
-8.77
-2.23
2.48
5.76
8.26
10.28
11.29
10.56
7.88
3.75
-0.98
-5.74
-10.07
-14.20
-18.17
-21.51
-23.39
-22.97
-20.13
-15.81
-12.31
-11.93
-15.34
-20.72
-24.46
-23.45
-16.85
-7.19
1.27
5.27
4.75
2.75
3.10
7.80
15.70
23.18
26.56
24.37
17.67
9.50
2.89
-0.63
-1.00
0.73
3.97
8.17
13.02
18.24
23.79
29.37
34.40
37.87
37.78
32.17
20.50
4.56
-11.87
-24.47
-30.42
-30.31
-27.10
-24.59
-24.59
-26.06
-25.77
-20.85
-10.69
2.51
15.04
23.71
26.98
25.42
20.66
14.77
9.18
4.37
0.35
-3.64
-7.90
-12.75
-17.52
-21.47
-23.47
-22.70
-19.04
-13.13
-6.21
0.60
6.00
9.22
9.54
6.46
0.44
-6.83
-12.49
-13.42
-7.99
2.55
14.59
23.73
27.07
24.81
19.61
15.15
13.46
14.42
15.83
15.81
14.10
12.00
11.86
15.18
22.42
33.01
46.22
60.71
74.57
84.73
87.66
80.79
63.79
39.90
14.33
-7.71
-23.30
-32.90
-39.51
-46.19
-53.91
-61.13
-64.52
-61.54
-51.87
-37.58
-21.90
-7.37
5.43
17.69
30.65
44.46
57.12
65.49
66.74
60.01
46.24
28.04
8.65
-9.18
-23.38
-33.61
-40.77
-46.70
-52.92
-59.56
-65.02
-66.66
-62.61
-52.63
-38.84
-24.43
-12.63
-5.30
-2.90
-4.50
-8.57
-13.52
-17.72
-19.78
-18.93
-15.75
-11.74
-8.79
-7.78
-7.86
-7.37
-4.57
0.48
5.96
9.26
8.52
3.80
-2.82
-8.07
-9.55
-6.48
-0.46
5.72
9.92
11.28
10.98
10.49
10.95
12.04
12.83
12.63
11.89
11.74
12.96
14.98
15.96
14.20
9.16
2.36
-3.81
-7.25
-7.63
-6.31
-4.99
-5.00
-6.07
-7.14
-6.99
-5.18
-2.27
0.96
3.34
4.45
3.99
2.12
-0.59
-3.42
-5.19
-5.31
-3.33
0.36
5.10
9.81
13.74
16.41
17.84
18.60
19.07
19.50
19.91
19.99
19.47
18.90
19.00
20.92
25.51
32.18
39.61
45.39
47.82
46.62
42.99
39.20
36.78
36.20
36.30
35.90
34.18
31.65
29.53
28.58
28.60
27.91
25.07
19.23
11.60
3.97
-1.81
-5.29
-7.32
-9.56
-12.95
-17.19
-21.55
-24.67
-26.23
-26.42
-26.11
-26.21
-27.10
-28.91
-31.25
-33.93
-36.59
-39.01
-40.70
-41.13
-40.12
-37.68
-34.46
-31.05
-28.17
-26.10
-24.90
-24.41
-24.55
-25.62
-28.09
-32.59
-38.89
-45.86
-51.20
-52.80
-49.61
-42.22
-32.97
-24.26
-17.69
-13.22
-9.71
-5.85
-1.43
3.00
6.30
7.63
7.29
6.13
5.39
5.63
7.00
8.94
10.75
11.88
12.04
11.57
11.02
11.34
12.99
15.86
18.81
20.41
19.42
15.39
9.23
2.14
-4.39
-9.64
-13.55
-16.64
-19.61
-22.96
-27.01
-31.73
-37.65
-44.98
-53.96
-64.10
-74.55
-84.45
-93.50
-102.40
-111.87
-122.38
-133.10
-142.20
-147.39
-147.14
-141.07
-129.82
-114.66
-96.65
-76.86
-56.14
-35.64
-16.44
0.66
15.32
28.01
39.21
49.45
58.69
66.81
73.51
78.69
82.90
86.39
89.67
92.44
94.26
94.37
92.11
87.29
80.08
71.37
61.83
52.50
44.02
37.22
32.82
31.23
32.27
35.03
38.21
40.08
39.45
35.53
28.77
20.76
14.04
11.12
13.07
18.54
23.82
25.51
21.68
13.66
5.06
-0.28
-0.28
4.06
9.98
14.34
15.85
14.82
12.79
11.02
9.82
8.89
7.77
6.67
6.17
7.13
