1638283033.00
64.000000
-0.00
-0.00
-0.00
-0.00
-0.00
-0.00
-0.00
-0.00
-0.00
-0.00
0.00
0.01
0.01
-0.00
-0.03
-0.05
-0.05
0.00
0.13
0.36
0.66
1.01
1.37
1.72
2.06
2.40
2.79
3.25
3.81
4.44
5.09
5.73
6.32
6.89
7.49
8.22
9.10
10.22
11.48
12.74
13.89
14.88
15.78
16.76
18.06
19.83
22.29
25.22
28.35
31.36
34.11
36.71
39.48
42.91
47.29
53.00
59.63
66.63
73.42
79.70
85.62
91.75
98.87
107.49
118.08
130.00
142.36
154.21
165.09
175.19
185.36
197.08
209.07
223.45
240.55
260.23
281.16
300.52
314.26
318.09
308.93
285.97
251.39
208.61
161.52
113.08
64.81
17.32
-29.08
-73.66
-115.53
-153.66
-188.46
-221.06
-253.30
-286.58
-321.17
-355.81
-387.44
-412.39
-426.95
-429.15
-419.08
-398.78
-371.54
-340.57
-308.57
-277.15
-247.23
-219.24
-193.63
-170.84
-151.18
-134.53
-120.11
-106.96
-93.64
-79.32
-63.71
-47.63
-32.50
-19.74
-10.69
-5.35
-3.28
-3.14
-3.84
-4.15
-3.47
-1.87
0.29
2.08
3.25
3.91
4.91
7.07
10.49
14.49
17.72
19.32
18.98
17.36
15.19
12.62
9.51
5.96
3.14
2.63
6.09
13.17
21.93
28.75
31.02
28.99
25.89
26.43
33.17
44.86
55.95
60.32
54.89
41.66
27.10
17.64
16.47
21.18
26.15
25.68
18.02
5.86
-5.74
-12.19
-12.49
-8.31
-2.40
3.43
8.87
14.23
19.36
22.77
23.26
20.26
15.63
12.41
13.27
19.00
27.48
34.65
36.26
30.81
19.82
7.63
-1.02
-3.79
-1.39
2.49
3.91
0.56
-6.31
-13.50
-17.34
-16.00
-10.76
-4.36
0.13
1.76
1.41
1.34
3.10
6.94
11.73
15.53
17.03
15.27
10.44
3.28
-4.94
-12.59
-18.27
-21.09
-21.73
-21.45
-22.12
-24.07
-25.96
-25.48
-20.69
-11.92
-2.03
4.52
4.49
-3.11
-15.74
-28.61
-36.60
-36.06
-27.06
-12.50
2.53
13.53
18.19
17.29
13.36
8.85
4.72
-0.13
-6.68
-14.67
-21.22
-22.99
-18.43
-9.59
-1.76
0.12
-5.82
-16.01
-23.98
-23.50
-12.30
6.86
27.66
43.16
49.30
45.70
36.03
25.50
18.74
18.33
23.55
31.32
37.28
37.95
31.74
19.79
4.69
-10.55
-23.13
-31.42
-34.28
-31.47
-23.51
-12.25
-0.54
8.66
13.35
13.30
9.79
5.17
1.59
0.47
1.88
5.18
9.31
13.07
15.92
17.01
16.20
13.99
11.43
9.95
10.43
12.73
15.19
16.13
14.14
9.85
4.75
0.53
-1.87
-2.99
-3.83
-5.30
-7.10
-8.07
-7.04
-3.76
0.58
4.22
5.80
5.32
3.84
2.67
2.33
2.46
2.38
1.50
0.56
0.40
2.09
5.87
11.19
16.77
21.05
23.10
22.06
18.33
12.40
5.53
-0.93
-5.73
-8.01
-8.11
-6.75
-5.38
-4.55
-4.06
-3.30
-1.74
0.06
1.07
-0.24
-4.09
-9.47
-14.02
-15.49
-12.91
-7.07
-0.45
4.76
7.05
6.77
4.94
3.00
1.91
2.08
3.84
6.51
9.29
10.85
10.38
7.78
4.06
0.75
-0.98
-0.59
0.98
2.65
3.37
2.71
0.92
-1.74
-4.32
-5.78
-4.46
0.01
6.72
12.81
15.35
13.05
6.76
-0.62
-6.77
-10.71
-13.67
-16.92
-20.50
-22.60
-20.29
-12.49
-0.82
10.21
16.22
14.90
7.89
-0.93
-7.92
-11.27
-11.86
-11.10
-9.67
-6.34
0.76
11.77
24.13
32.97
34.26
26.74
13.38
-0.85
-11.40
-16.06
-15.27
-10.50
-3.34
5.87
16.24
26.12
32.51
32.01
23.21
7.21
-11.80
-28.78
-39.28
-41.63
-36.80
-27.80
-18.33
-10.82
-6.23
-3.93
-3.43
-4.47
-7.32
-11.87
-16.36
-18.32
-15.30
-7.40
2.96
11.44
14.66
11.63
4.26
-3.50
-8.40
-8.67
-4.89
1.11
7.47
12.57
15.87
17.00
16.34
14.37
12.07
10.01
8.43
7.01
4.93
2.16
-1.12
-3.86
-5.76
-7.06
-8.69
-11.60
-15.50
-19.34
-21.08
-19.75
-15.86
-11.70
-9.54
-9.91
-10.95
-8.73
-0.45
13.91
30.66
44.04
49.33
45.53
35.93
25.32
17.64
13.22
10.04
5.47
-0.90
-6.54
-8.09
-3.22
6.56
17.27
24.17
24.53
19.12
11.16
4.49
0.92
0.25
0.51
0.30
-0.77
-1.68
-1.10
1.41
5.20
8.37
9.16
6.38
0.70
-6.26
-12.24
-15.30
-15.42
-13.62
-12.05
-12.18
-14.19
-16.43
-16.83
-14.09
-8.48
-2.36
1.70
2.07
-0.89
-5.06
-7.99
-8.35
-6.76
-4.52
-3.31
-3.24
-4.03
-4.95
-5.63
-6.24
-6.94
-7.84
-8.42
-8.56
-8.40
-8.79
-10.39
-12.58
-13.59
-10.65
-2.38
10.33
23.47
32.21
32.66
24.33
10.33
-4.36
-14.86
-19.06
-17.60
-13.52
-9.82
-7.78
-6.88
-4.97
-0.88
5.31
11.13
13.66
10.82
3.15
-5.99
-12.43
-12.90
-7.12
2.45
11.64
17.19
18.22
16.35
14.69
15.11
17.70
19.90
18.91
13.30
4.36
-4.64
-10.91
-13.68
-15.33
-18.58
-25.11
-33.36
-39.35
-39.27
-31.58
-18.73
-5.09
5.02
10.44
12.39
13.55
15.90
19.24
22.20
23.12
21.62
18.01
13.21
8.00
2.72
-2.04
-5.59
-6.93
-6.09
-4.02
-2.86
-4.44
-8.59
-13.13
-14.49
-10.82
-2.62
6.37
11.73
10.53
3.17
-6.18
-12.35
-11.35
-3.45
7.42
15.09
14.96
6.46
-6.59
-17.70
-21.71
-17.32
-8.46
-1.58
-1.65
-9.18
-19.29
-25.11
-21.25
-7.66
11.16
28.68
39.91
43.78
42.31
38.99
35.69
32.50
27.86
20.90
12.42
4.52
-0.20
-0.82
1.80
4.81
5.80
3.69
-0.12
-3.17
-3.79
-2.02
-0.16
-0.53
-4.59
-11.52
-19.07
-25.23
-28.83
-30.49
-30.69
-29.80
-27.03
-21.51
-13.18
-3.08
6.34
13.07
15.75
14.88
12.01
9.31
8.50
9.83
12.12
12.97
10.66
4.69
-2.93
-9.01
-10.35
-5.70
2.98
12.00
16.94
15.42
7.30
-4.92
-17.53
-26.91
-30.64
-28.57
-22.21
-14.49
-7.87
-3.87
-2.16
-1.29
-0.21
1.41
2.63
2.70
1.77
1.58
4.01
9.62
16.83
22.02
21.94
15.44
4.81
-5.65
-11.26
-9.24
0.06
13.89
27.53
36.24
36.31
26.41
8.21
-13.27
-31.33
-40.01
-36.57
-23.02
-4.57
12.47
23.86
28.26
26.69
21.18
12.96
3.31
-6.39
-13.50
-15.61
-11.93
-4.11
4.26
9.97
11.62
10.59
9.19
8.85
8.80
6.85
1.81
-5.55
-11.90
-13.65
-9.04
0.43
10.68
17.14
16.94
10.51
0.32
-10.07
-17.91
-21.43
-20.53
-16.44
-11.09
-7.18
-6.40
-9.05
-13.28
-16.78
-17.70
-15.98
-13.22
-10.91
-10.10
-10.06
-9.59
-7.56
-4.33
-1.20
0.60
0.29
-1.35
-3.43
-5.11
-6.26
-6.94
-6.91
-5.72
-2.36
3.70
12.72
23.65
34.29
41.52
42.57
36.98
27.07
17.21
10.98
9.89
11.85
13.52
12.54
9.07
6.11
6.68
12.34
21.29
30.23
35.37
34.69
28.18
17.15
3.54
-11.05
-24.85
-36.54
-44.96
-49.81
-51.90
-52.55
-53.19
-53.96
-53.76
-50.44
-42.48
-29.86
-14.80
-0.67
9.66
14.62
15.23
13.42
11.48
10.57
10.70
11.13
11.06
10.24
8.59
6.17
2.78
-1.34
-5.51
-8.62
-9.99
-10.11
-10.17
-11.58
-14.56
-17.80
-18.96
-15.84
-8.33
1.87
11.76
18.94
22.18
22.08
20.06
17.59
16.04
16.10
18.23
21.90
25.60
26.68
22.89
13.53
0.73
-11.14
-17.46
-15.66
-6.64
5.81
16.90
23.13
23.42
18.31
9.27
-2.47
-15.47
-27.73
-36.23
-37.73
-30.88
-16.81
0.33
15.32
23.57
23.49
16.62
6.68
-2.39
-8.00
-9.08
-6.25
-0.36
7.46
16.09
23.59
27.43
25.66
17.76
5.65
-7.13
-16.63
-20.16
-17.60
-10.67
-2.09
5.86
11.51
14.08
12.74
7.50
-0.70
-9.59
-15.83
-16.93
-12.28
-4.51
2.41
4.75
1.48
-5.48
-12.77
-17.02
-17.22
-14.44
-11.10
-8.96
-8.54
-8.74
-8.09
-5.77
-2.22
1.03
2.76
2.49
0.71
-1.54
-3.24
-3.85
-3.30
-1.55
1.07
4.75
9.56
15.43
21.91
27.90
31.82
32.13
28.10
20.22
9.96
-0.25
-8.40
-12.61
-12.27
-7.65
-0.12
8.44
15.43
18.66
16.83
10.24
0.92
-8.48
-15.59
-19.59
-21.37
-22.35
-23.25
-23.38
-21.57
-17.17
-11.24
-5.90
-3.35
-4.33
-7.79
-11.40
-13.27
-12.92
-11.10
-9.14
-7.99
-7.35
-6.69
-5.32
-3.50
-1.93
-1.72
-3.15
-5.58
-7.96
-8.91
-7.96
-4.93
-0.62
4.05
8.25
11.52
13.87
15.49
16.74
17.65
18.10
17.97
17.00
15.15
12.67
10.04
7.90
7.00
7.05
7.37
6.89
4.97
2.15
-0.11
-0.29
1.75
4.96
7.17
6.77
3.49
-1.69
-6.80
-10.39
-11.47
-10.26
-7.10
-2.98
0.85
2.97
2.37
-0.58
-4.36
-6.59
-5.26
0.30
9.22
19.29
28.12
33.25
33.56
28.77
20.05
9.82
1.04
-4.06
-5.23
-3.76
-2.26
-2.58
-5.67
-10.76
-16.75
-22.83
-28.36
-32.63
-34.08
-31.76
-25.45
-17.24
-10.25
-7.03
-8.34
-11.93
-14.71
-13.85
-9.04
-2.10
4.15
7.63
8.21
6.78
4.96
3.54
2.40
0.68
-1.82
-4.42
-6.25
-6.58
-5.72
-4.44
-3.66
-3.14
-1.74
1.97
8.72
17.25
25.41
30.46
31.43
28.85
24.64
20.64
17.49
15.08
12.64
10.20
8.18
7.18
6.92
6.12
3.19
-3.22
-12.95
-24.12
-33.18
-37.01
-33.69
-23.96
-11.18
0.19
6.26
5.78
0.52
-5.59
-9.09
-8.46
-4.59
-0.15
2.71
3.13
2.13
1.27
1.85
3.71
5.69
6.31
4.95
2.29
-0.42
-1.49
-0.24
2.72
6.06
8.73
10.48
11.78
13.36
14.87
15.11
12.71
7.51
0.95
-4.50
-6.95
-6.33
-3.93
-1.91
-1.55
-2.70
-4.52
-6.52
-9.14
-13.12
-18.79
-25.22
-30.72
-33.51
-32.90
-29.31
-23.74
-17.59
-11.89
-7.60
-4.93
-3.67
-2.52
0.05
4.98
11.67
17.76
20.41
17.54
9.85
0.44
-6.08
-6.09
0.72
11.58
21.22
25.17
21.67
13.10
4.28
-0.08
2.14
9.46
18.43
25.48
29.61
32.28
36.05
42.47
50.51
57.01
57.95
50.93
36.04
16.39
-3.42
-18.72
-26.67
-27.81
-25.12
-23.01
-24.77
-31.18
-40.20
-48.38
-53.30
-54.38
-53.44
-52.31
-51.65
-49.96
-44.90
-35.19
-21.86
-8.43
1.19
3.97
0.29
-6.82
-12.75
-13.70
-8.53
1.29
12.32
21.65
28.04
32.17
35.07
37.02
37.03
33.21
25.25
14.60
4.80
-1.07
-1.70
1.67
5.91
8.52
8.33
6.28
3.86
2.46
2.64
4.47
8.02
12.87
18.34
22.05
21.44
14.32
1.11
-14.99
-29.07
-36.30
-34.81
-25.57
-12.07
1.73
12.87
20.13
23.68
24.10
22.24
18.95
15.50
12.70
10.75
8.97
6.17
2.01
-2.91
-6.77
-8.49
-7.82
-6.40
-6.23
-8.42
-12.65
-16.83
-18.86
-17.32
-12.59
-6.16
-0.46
2.34
1.02
-4.44
-11.90
-18.19
-19.69
-14.49
-3.42
10.33
22.37
29.02
28.62
21.80
10.34
-3.29
-16.76
-27.45
-33.01
-32.01
-24.47
-12.82
-0.31
10.12
17.48
22.70
27.20
31.87
35.83
37.53
35.35
29.28
20.25
10.10
0.25
-8.82
-16.66
-23.29
-27.90
-30.05
-29.34
-25.93
-20.39
-13.41
-6.28
-0.26
2.86
2.11
-2.79
-10.18
-17.26
-21.24
-20.24
-14.80
-6.94
0.17
4.19
4.32
1.58
-1.54
-2.84
-0.64
4.80
12.37
20.05
26.38
30.19
31.05
29.44
25.83
21.43
16.58
11.61
6.37
1.08
-3.30
-5.79
-5.48
-3.42
-1.62
-3.13
-9.48
-19.76
-30.70
-37.74
-38.13
-31.55
-20.89
-9.60
-0.38
6.09
10.29
12.58
13.05
11.37
8.43
6.04
6.91
11.97
19.50
25.24
24.28
14.68
-1.65
-18.81
-30.48
-32.95
-26.58
-15.01
-2.57
7.63
15.00
19.65
21.76
20.73
15.80
7.51
-2.04
-9.13
-10.93
-6.55
1.71
10.04
14.81
14.11
8.84
1.26
-5.59
-10.03
-11.16
-9.27
-4.99
1.01
7.70
14.00
18.06
18.86
16.35
12.02
8.26
6.87
8.03
9.90
10.62
9.02
6.09
3.69
3.45
5.45
7.55
7.32
2.71
-5.77
-16.30
-26.02
-32.79
-36.24
-37.15
-37.30
-37.62
-38.73
-39.94
-40.59
-40.41
-39.67
-39.18
-38.81
-37.72
-33.30
-23.33
-6.99
13.48
33.07
46.08
48.12
39.38
23.54
6.90
-5.35
-10.44
-8.72
-2.54
5.95
15.03
24.24
32.59
38.96
41.35
38.19
29.55
17.36
5.13
-4.35
-9.58
-11.69
-13.02
-15.88
-20.60
-25.08
-26.40
-22.29
-13.72
-4.17
1.45
0.23
-7.04
-16.61
-23.06
-22.87
-15.01
-1.78
13.81
28.61
40.40
48.06
50.65
47.99
40.09
28.45
15.20
2.83
-6.34
-10.76
-9.58
-3.48
6.06
15.98
23.10
24.53
19.72
10.83
1.98
-2.29
-0.18
7.06
14.83
18.29
14.44
3.23
-12.43
-28.68
-41.55
-48.64
-48.45
-41.16
-28.39
-12.99
1.06
10.58
13.51
10.30
2.70
-6.96
-17.05
-26.32
-33.31
-36.07
-32.11
-20.41
-2.40
17.38
33.17
40.06
36.23
24.48
10.22
-0.30
-3.86
-0.85
4.57
7.50
5.17
-1.68
-8.96
-12.47
-10.07
-3.58
2.94
5.73
3.35
-2.51
-9.04
-13.66
-15.97
-16.42
-15.48
-12.34
-5.62
4.86
17.37
27.88
32.59
29.46
20.14
8.75
-0.23
-4.05
-2.97
0.95
4.83
7.10
7.21
5.57
2.61
-1.67
-6.65
-11.02
-12.62
-10.25
-4.20
3.42
9.33
11.10
7.58
0.08
-8.90
-16.40
-20.07
-18.71
-12.69
-4.17
3.98
8.51
7.79
1.90
-6.78
-14.71
-18.59
-17.13
-11.60
-4.52
1.14
3.88
3.46
0.81
-2.39
-4.78
-5.14
-3.19
1.13
6.82
12.74
17.73
20.98
22.45
22.16
20.50
17.67
14.15
10.39
7.52
6.67
7.64
8.92
7.60
1.70
-8.39
-19.29
-26.48
-26.57
-19.37
-8.17
2.22
7.42
6.02
-0.86
-10.34
-19.51
-26.34
-29.46
-28.71
-24.19
-17.73
-11.86
-9.41
-11.47
-16.32
-20.34
-19.65
-13.34
-3.62
4.58
7.30
3.71
-3.50
-9.59
-11.04
-6.78
1.46
11.55
21.92
32.47
43.11
52.76
59.28
59.89
53.40
40.54
24.68
9.93
0.04
-2.77
1.05
9.20
17.35
21.09
17.02
5.13
-11.02
-25.30
-31.53
-26.94
-12.80
5.32
21.01
29.12
28.03
19.79
8.08
-2.82
-10.23
-13.14
-12.23
-8.96
-5.12
-2.43
-1.57
-2.49
-3.90
-4.63
-3.59
-1.09
1.54
2.73
1.38
-1.85
-5.25
-6.20
-3.73
1.31
5.99
7.27
4.03
-2.62
-9.19
-13.01
-13.13
-11.37
-10.55
-12.13
-15.47
-17.88
-17.16
-13.25
-8.59
-6.52
-8.73
-14.27
-19.90
-22.58
-20.53
-14.69
-7.21
-0.50
4.08
6.44
7.03
6.34
4.05
-0.09
-6.15
-12.97
-18.76
-21.26
-18.50
-10.29
2.24
16.12
28.14
35.60
37.43
34.59
28.95
22.51
16.45
11.29
7.12
4.08
2.58
2.88
5.21
8.99
13.31
16.78
18.27
16.72
11.64
3.28
-7.65
-19.34
-29.51
-35.77
-36.75
-32.10
-23.54
-13.95
-6.23
-2.66
-3.29
-6.80
-10.81
-13.93
-16.18
-18.56
-22.10
-26.27
-29.14
-28.13
-22.43
-13.14
-3.06
4.97
9.85
11.95
12.53
12.14
10.89
8.18
4.09
-0.38
-4.21
-6.70
-8.31
-9.69
-11.59
-13.39
-14.03
-12.71
-9.40
-5.47
-2.10
0.05
1.96
5.02
10.09
16.90
23.78
28.93
31.03
30.09
26.65
22.22
17.98
14.88
13.69
14.28
16.36
18.75
20.63
21.47
21.97
23.34
26.34
30.73
34.65
36.56
35.52
32.66
30.10
29.75
31.89
34.65
35.18
30.64
20.33
5.51
-11.04
-26.32
-38.39
-46.62
-51.35
-52.99
-52.28
-49.45
-45.26
-40.11
-34.05
-27.20
-19.67
-12.33
-6.37
-3.67
-5.13
-10.46
-17.63
-23.87
-27.10
-26.52
-23.10
-18.11
-13.10
-8.82
-5.87
-4.99
-6.38
-9.86
-13.50
-14.74
-10.99
-1.28
13.13
29.03
42.27
49.75
49.84
43.38
32.39
19.84
8.86
2.04
0.72
4.39
11.21
18.07
22.74
23.96
21.99
18.19
13.89
10.09
6.57
2.85
-2.11
-8.61
-16.45
-24.96
-32.84
-38.90
-41.75
-41.17
-37.74
-33.06
-28.75
-25.60
-23.25
-20.25
-15.61
-9.05
-1.57
5.33
10.47
14.17
17.75
22.31
27.96
32.77
34.46
31.51
24.57
16.81
11.83
12.05
16.47
21.54
22.39
16.37
4.54
-8.56
-17.28
-18.29
-11.99
-2.84
3.80
4.34
-1.07
-9.09
-15.33
-17.08
-14.93
-11.41
-9.56
-10.24
-12.18
-12.82
-10.26
-4.90
1.19
4.97
5.01
1.75
-2.66
-6.17
-8.19
-9.57
-12.17
-16.71
-22.66
-28.07
-30.81
-29.34
-23.53
-14.05
-1.60
12.50
26.64
38.13
43.64
40.55
28.69
10.76
-8.42
-23.12
-29.84
-27.78
-19.11
-7.63
2.91
9.76
11.99
9.54
3.81
-3.29
-8.97
-10.53
-6.36
3.02
14.40
23.87
28.33
27.50
23.41
19.30
16.69
14.53
10.44
2.23
-9.40
-21.41
-29.95
-32.98
-31.00
-26.21
-20.80
-14.60
-6.26
5.68
20.29
34.20
42.85
43.23
35.90
24.48
14.38
9.66
11.48
17.44
23.39
25.66
22.87
16.58
9.43
3.59
-1.18
-6.38
-13.28
-20.78
-25.23
-23.15
-13.65
-0.63
9.09
8.87
-3.32
-23.33
-43.10
-54.34
-53.68
-43.19
-29.38
-18.64
-14.40
-15.96
-19.54
-21.58
-20.11
-16.36
-12.82
-12.30
-15.82
-21.75
-26.54
-26.19
-18.72
-4.84
11.47
25.61
33.85
35.33
32.16
27.94
26.24
28.60
34.87
42.91
50.25
54.55
54.05
48.18
37.13
22.98
8.73
-2.11
-7.21
-6.34
-1.42
3.83
6.29
3.91
-2.53
-10.58
-16.88
-18.52
-14.38
-5.19
6.17
16.01
20.43
17.37
7.00
-7.99
-23.45
-35.31
-40.53
-38.41
-29.73
-16.96
-2.87
9.72
18.54
22.10
19.76
12.63
3.15
-5.13
-9.34
-8.06
-1.99
6.19
13.25
16.18
13.98
7.40
-0.74
-7.50
-10.89
-10.64
-7.82
-3.63
1.12
6.45
11.90
16.46
18.23
15.34
7.49
-3.87
-15.33
-23.61
-26.58
-24.59
-19.73
-15.09
-13.17
-14.94
-19.88
-25.77
-30.09
-30.20
-24.88
-14.79
-2.45
8.40
14.91
15.63
11.76
5.75
0.54
-1.96
-1.62
0.36
1.78
0.60
-4.75
-14.12
-25.56
-35.59
-39.85
-35.31
-21.31
-1.26
19.17
34.04
40.10
38.06
31.46
24.56
19.51
16.20
12.75
7.95
2.27
-2.34
-3.87
-2.40
0.41
2.23
2.13
1.17
1.59
4.86
9.84
13.29
11.70
3.88
-8.32
-19.96
-25.81
-23.21
-13.11
-0.18
10.53
15.43
14.46
10.03
5.06
1.27
-1.97
-6.20
-12.81
-20.96
-28.21
-31.49
-29.10
-21.85
-12.27
-3.56
2.56
6.28
9.10
12.18
15.88
19.20
20.79
19.79
16.38
12.12
8.39
6.59
7.22
9.78
13.32
16.30
17.65
16.41
12.87
8.21
4.20
2.67
4.50
9.63
16.27
22.26
25.33
24.35
19.38
11.92
4.57
-0.34
-0.97
2.81
9.47
16.29
20.79
21.67
19.32
15.08
9.46
2.19
-8.08
-21.64
-36.98
-50.80
-59.13
-59.69
-52.57
-40.82
-28.70
-20.16
-16.93
-18.34
-22.02
-24.60
-24.01
-19.86
-13.92
-8.79
-6.70
-7.94
-10.17
-10.01
-4.41
6.64
20.30
32.02
37.78
35.86
27.22
14.99
2.59
-6.70
-11.23
-10.47
-5.07
3.49
13.31
22.09
27.92
29.22
25.65
17.78
8.00
-0.47
-4.64
-2.76
4.33
13.66
20.72
22.20
17.40
8.49
-0.43
-6.15
-7.46
-6.35
-5.84
-8.31
-13.59
-19.21
-22.04
-20.25
-15.39
-10.58
-9.27
-12.68
-19.26
-25.73
-29.40
-29.79
-28.04
-26.16
-24.63
-22.67
-18.61
-11.24
-0.94
10.95
23.10
35.23
46.99
57.95
66.24
69.35
65.67
55.31
41.11
26.60
15.02
7.34
2.75
-0.81
-5.07
-10.21
-15.36
-18.20
-17.15
-12.13
-5.68
-1.84
-4.12
-13.60
-27.20
-39.73
-45.82
-43.62
-35.33
-25.76
-19.26
-17.28
-18.32
-19.21
-18.40
-16.19
-14.80
-15.78
-18.23
-19.36
-15.78
-6.68
5.74
16.98
23.31
23.59
19.80
15.53
13.27
13.49
14.10
12.77
8.16
1.48
-4.42
-6.98
-5.04
-0.22
5.14
8.69
9.96
9.62
8.95
8.99
9.87
11.72
14.23
17.54
21.45
25.97
30.84
34.97
37.08
35.57
29.99
21.05
10.94
2.38
-2.54
-3.38
-1.54
0.92
2.07
1.76
0.77
0.34
0.33
-0.89
-5.38
-14.63
-27.48
-40.69
-50.18
-52.79
-47.92
-37.32
-24.84
-13.83
-6.32
-1.86
1.60
6.08
12.47
19.47
24.82
26.03
22.47
14.96
5.94
-1.80
-6.62
-8.23
-7.66
-6.26
-5.55
-5.92
-7.31
-9.29
-11.95
-15.67
-20.24
-24.30
-25.00
-19.62
-7.55
8.57
22.83
29.47
25.38
12.78
-2.73
-14.99
-21.06
-22.31
-22.17
-23.31
-24.77
-23.33
-15.75
-2.67
11.50
20.86
21.46
14.02
2.66
-7.13
-12.09
-11.44
-6.39
1.62
11.86
23.25
33.86
40.58
41.30
35.86
26.88
18.06
11.62
7.27
2.47
-4.37
-12.72
-19.18
-20.64
-16.28
-8.43
-1.16
2.75
2.91
1.47
0.68
2.18
5.84
10.64
15.84
20.47
23.58
23.25
17.57
5.28
-12.77
-33.19
-51.03
-61.20
-60.81
-49.32
-29.32
-5.38
17.39
34.99
45.51
49.05
47.52
42.43
34.73
24.33
11.61
-1.89
-13.06
-18.42
-15.82
-5.41
9.42
24.05
33.71
35.83
30.57
20.20
8.22
-2.46
-10.00
-14.14
-15.65
-15.83
-15.64
-15.01
-13.57
-10.18
-4.51
2.42
7.99
9.19
3.84
-7.72
-22.02
-34.02
-38.84
-34.55
-22.19
-5.48
11.33
24.09
29.33
25.02
10.45
-12.29
-38.13
-59.89
-70.84
-67.91
-52.66
-30.80
-9.05
7.63
18.01
23.32
25.49
25.47
22.67
17.01
9.54
3.22
0.89
3.89
10.89
18.36
22.80
22.21
17.65
11.63
7.08
5.37
6.23
8.16
9.77
10.83
11.89
13.33
14.09
12.09
5.60
-5.42
-18.22
-29.02
-34.29
-33.27
-27.54
-20.33
-14.57
-11.87
-12.25
-14.59
-18.02
-21.25
-22.77
-20.85
-14.17
-3.52
8.43
17.42
20.39
16.96
10.29
4.85
4.17
9.27
18.44
28.61
36.74
41.32
41.86
39.06
33.93
27.06
19.38
11.78
5.79
2.71
3.22
6.68
11.33
14.54
14.01
8.95
-0.19
-11.19
-21.05
-27.02
-27.75
-24.11
-18.50
-14.16
-13.23
-16.39
-21.74
-26.45
-28.14
-26.38
-23.18
-21.18
-21.94
-24.20
-24.81
-20.38
-9.65
5.42
21.35
34.55
43.60
48.83
51.52
51.58
47.56
37.43
20.38
-1.31
-23.33
-40.18
-48.10
-46.30
-37.39
-26.03
-16.49
-11.19
-9.46
-9.34
-8.41
-6.11
-3.16
-0.61
1.31
3.68
7.78
13.81
19.19
20.38
14.69
2.86
-10.45
-19.20
-18.93
-9.95
3.48
14.90
19.56
15.96
5.99
-6.31
-17.30
-24.50
-27.25
-25.54
-19.86
-10.83
0.13
10.75
18.86
22.52
21.74
17.91
13.36
10.15
9.06
9.22
8.50
5.36
-1.12
-10.03
-19.62
-27.92
-33.42
-35.32
-32.89
-26.19
-15.56
-2.82
9.86
20.23
26.74
29.60
30.12
30.29
31.15
32.75
33.57
32.19
27.75
20.07
9.99
-1.96
-15.00
-28.19
-39.16
-44.81
-42.55
-31.92
-16.33
-1.12
8.32
10.00
6.09
1.79
1.85
7.59
16.82
25.06
29.27
28.65
24.91
20.12
14.71
7.77
-1.87
-13.42
-24.03
-29.61
-27.85
-19.19
-6.68
5.82
15.63
21.07
21.84
17.46
8.21
-4.92
-19.26
-30.63
-35.43
-31.75
-21.20
-7.79
3.13
7.96
6.15
0.15
-5.60
-7.41
-3.25
6.17
18.26
29.40
36.70
38.96
36.53
31.13
24.28
17.55
11.88
8.28
7.41
9.60
14.49
20.76
26.92
31.32
33.37
32.72
29.28
22.95
13.42
1.23
-12.92
-27.22
-40.05
-49.75
-55.20
-56.28
-52.93
-46.10
-37.21
-28.24
-20.79
-15.78
-12.97
-11.11
-9.14
-6.87
-5.90
-7.86
-13.64
-21.42
-27.85
-29.54
-25.44
-17.86
-10.68
-7.59
-9.10
-12.64
-13.94
-9.68
0.75
15.46
30.53
42.73
50.19
53.16
53.00
50.76
46.85
40.66
31.81
20.09
6.33
-8.04
-21.56
-32.91
-41.17
-45.70
-46.83
-45.08
-41.80
-37.66
-32.75
-26.32
-17.07
-4.76
9.79
23.77
34.30
39.25
38.75
34.68
29.41
25.05
22.13
20.47
19.20
17.73
15.34
11.44
5.97
-0.97
-8.10
-14.24
-17.96
-18.21
-14.46
-7.27
1.90
10.75
16.30
16.46
10.56
0.55
-9.67
-15.72
-14.83
-7.61
2.63
11.00
14.47
12.76
8.87
6.88
9.09
14.78
19.87
19.98
12.54
-0.95
-16.20
-28.47
-34.79
-35.33
-31.62
-25.64
-18.22
-9.89
-1.43
5.04
6.98
3.08
-6.43
-19.25
-32.63
-43.77
-50.67
-51.86
-46.46
-34.74
-18.41
-0.74
15.49
28.64
39.21
48.36
56.00
60.22
57.71
47.04
29.98
12.23
0.25
-2.01
4.60
14.72
21.91
21.40
12.68
-1.40
-15.94
-26.59
-31.47
-30.92
-27.36
-23.65
-22.36
-24.06
-27.99
-32.61
-36.39
-38.71
-39.18
-37.92
-34.74
-29.71
-23.33
-16.89
-11.78
-8.74
-7.82
-7.69
-7.39
-6.22
-4.31
-1.73
2.21
8.79
19.29
33.24
48.75
62.56
72.13
76.54
76.38
72.97
67.13
58.99
48.12
35.25
21.90
10.60
3.54
1.11
1.96
3.08
1.92
-2.51
-9.03
-15.64
-20.67
-23.95
-27.05
-31.09
-36.01
-39.30
-37.94
-29.93
-15.97
0.64
15.62
24.77
25.69
17.59
1.71
-18.90
-39.16
-52.84
-54.84
-43.21
-20.92
5.59
27.99
39.85
38.48
25.59
6.40
-12.85
-26.30
-30.57
-25.07
-12.69
1.99
14.14
20.37
20.15
14.96
8.05
2.62
1.32
5.39
14.52
26.71
38.04
44.25
41.96
30.65
12.20
-9.29
-29.41
-45.00
-54.55
-58.70
-58.37
-55.00
-49.40
-42.28
-34.09
-25.24
-16.21
-7.10
1.60
9.92
17.22
23.17
27.32
29.78
31.30
32.71
34.94
37.84
40.36
40.29
35.42
24.85
9.76
-6.15
-18.44
-23.29
-20.67
-13.83
-8.12
-7.32
-11.15
-15.80
-15.89
-8.75
4.36
18.69
29.56
34.65
34.62
31.55
25.99
17.10
3.34
-13.93
-30.33
-39.61
-37.69
-25.78
-9.73
2.67
6.62
2.32
-5.39
-10.64
-10.04
-3.97
4.08
10.83
14.29
14.80
13.25
10.00
4.34
-4.55
-15.54
-25.33
-28.88
-22.16
-4.33
20.65
45.27
61.25
62.64
48.87
24.13
-3.81
-27.37
-41.71
-45.96
-42.71
-35.59
-27.88
-20.77
-14.33
-7.85
-1.08
5.36
10.63
13.87
15.47
16.40
18.26
21.90
26.99
31.45
31.87
25.36
10.64
-10.43
-32.81
-49.58
-54.85
-46.23
-26.18
-1.53
19.99
32.83
36.17
33.20
28.87
26.98
28.23
30.90
31.86
29.00
21.45
9.99
-3.78
-17.93
-30.28
-39.24
-43.60
-43.60
-40.55
-36.83
-34.55
-35.11
-38.88
-44.67
-50.49
-53.42
-50.59
-39.93
-21.66
1.47
24.71
42.66
51.86
51.29
42.94
30.21
17.08
6.68
0.90
0.14
3.17
7.70
10.75
10.27
5.49
-2.51
-11.40
-18.56
-21.77
-20.30
-14.22
-4.84
6.31
17.02
24.69
26.90
21.99
10.61
-4.61
-19.22
-29.28
-32.65
-30.20
-25.30
-21.49
-20.97
-23.22
-26.19
-27.20
-25.15
-20.64
-15.43
-10.90
-6.60
-0.83
9.10
24.02
42.07
58.48
67.51
65.80
53.85
36.70
20.83
11.48
9.91
13.70
18.61
21.22
20.92
18.60
15.59
11.67
5.86
-2.42
-11.52
-17.53
-16.67
-7.18
8.49
25.13
36.90
40.27
35.23
24.51
11.99
0.33
-8.74
-14.63
-16.80
-14.84
-9.24
-1.50
5.43
8.81
6.58
-1.40
-13.55
-27.08
-38.98
-47.15
-50.36
-48.87
-43.39
-35.50
-26.40
-17.63
-10.34
-4.85
-0.93
3.02
8.45
16.33
25.68
33.89
37.57
34.37
24.75
11.47
-1.30
-10.74
-16.04
-18.48
-20.00
-21.58
-23.25
-24.18
-24.16
-23.60
-23.49
-24.15
-25.30
-26.66
-28.37
-31.09
-34.37
-36.58
-34.36
-25.16
-8.92
10.95
28.54
39.00
40.58
35.84
29.32
25.23
25.21
28.19
32.04
34.55
34.79
31.85
25.34
15.31
3.82
-5.46
-8.50
-3.04
9.16
23.74
35.34
40.91
40.66
37.51
34.45
32.49
31.21
29.05
25.71
21.66
18.15
15.67
13.27
9.33
2.35
-7.74
-20.07
-32.85
-44.58
-54.40
-61.44
-65.05
-64.18
-58.71
-49.16
-37.76
-27.15
-19.85
-16.85
-16.59
-16.24
-12.21
-2.61
12.16
28.90
43.50
52.18
52.74
45.62
32.72
17.27
1.99
-10.98
-21.11
-29.26
-36.29
-42.69
-47.30
-48.75
-45.82
-39.19
-31.37
-25.66
-24.21
-25.91
-27.25
-23.50
-12.17
5.58
24.83
39.54
45.52
42.16
33.05
23.07
16.50
14.80
16.79
19.58
20.30
17.81
12.56
6.69
2.63
2.69
7.70
16.40
25.47
30.13
26.63
14.00
-4.15
-21.92
-33.08
-34.46
-27.22
-15.50
-4.34
3.23
6.46
6.84
5.81
4.23
1.90
-1.74
-6.37
-11.16
-14.85
-16.92
-17.46
-17.28
-16.98
-16.30
-14.93
-12.45
-8.77
-3.67
2.74
10.28
18.50
26.22
31.80
32.76
27.52
15.72
-0.33
-16.07
-26.02
-26.12
-15.53
2.86
22.53
36.44
39.58
31.36
15.99
0.70
-7.95
-7.41
0.49
10.62
18.55
22.43
23.16
22.85
22.42
21.00
16.55
8.48
-1.84
-10.56
-13.73
-9.58
0.61
12.22
19.77
18.75
8.20
-9.17
-27.62
-41.14
-46.21
-43.24
-36.52
-31.30
-31.05
-35.23
-40.42
-42.37
-38.97
-31.63
-23.15
-16.35
-11.75
-8.06
-3.80
1.17
5.57
7.96
7.94
7.70
9.97
16.99
27.98
39.25
45.94
44.29
34.12
18.46
2.74
-8.52
-13.24
-12.26
-8.17
-3.20
1.91
8.05
15.81
24.76
32.40
35.94
34.32
29.10
24.44
23.97
28.81
36.15
41.07
39.17
29.66
15.97
3.33
-3.62
-4.05
-0.28
3.46
3.79
-0.65
-9.15
-19.88
-31.56
-43.13
-53.82
-61.81
-64.66
-60.33
-48.58
-32.20
-16.08
-6.05
-5.41
-14.03
-27.84
-40.90
-47.97
-46.36
-37.10
-23.20
-8.61
3.77
12.22
16.62
17.80
16.90
15.46
14.04
12.66
10.58
7.60
4.37
2.61
4.46
10.65
20.30
30.17
36.62
36.90
30.64
19.53
6.62
-4.63
-12.05
-14.48
-12.63
-8.05
-2.85
1.66
5.66
9.71
14.43
18.85
21.13
19.09
12.70
4.23
-2.67
-4.43
-0.44
7.28
14.52
17.42
13.93
4.77
-7.43
-19.56
-28.54
-32.62
-31.30
-25.66
-17.45
-9.02
-2.27
1.88
3.20
2.73
1.30
0.25
0.73
3.82
10.31
19.66
29.93
37.51
39.19
32.86
19.87
4.32
-8.73
-15.21
-14.36
-8.25
-0.69
5.42
8.79
10.28
11.44
12.89
14.07
13.23
8.95
0.82
-9.50
-19.28
-25.47
-26.12
-21.79
-14.74
-8.89
-7.47
-11.86
-20.68
-30.57
-37.61
-39.33
-35.64
-27.44
-16.42
-3.34
11.11
25.59
37.50
43.37
40.71
29.29
12.44
-4.41
-15.59
-18.00
-11.91
-0.73
10.72
18.58
20.74
17.66
11.07
3.28
-3.87
-9.52
-13.19
-14.65
-13.46
-9.65
-3.55
3.54
10.37
16.39
21.55
26.50
30.85
33.74
33.59
29.65
22.43
13.33
3.73
-6.21
-16.80
-28.48
-39.60
-47.38
-48.92
-43.67
-34.57
-26.21
-22.33
-22.74
-23.91
-20.92
-11.64
1.25
11.76
14.03
6.54
-7.53
-21.55
-30.05
-30.95
-25.79
-18.04
-9.79
-1.58
7.37
16.59
24.17
27.48
25.55
20.25
15.47
15.30
20.33
28.07
33.68
33.41
26.60
16.01
6.55
2.25
5.02
13.34
23.88
32.70
37.01
36.18
31.42
25.51
20.33
16.83
13.68
9.05
1.85
-7.73
-17.63
-25.66
-30.12
-31.30
-30.39
-28.57
-26.02
-22.04
-16.22
-8.89
-2.11
2.34
3.35
1.71
-1.42
-5.45
-10.44
-17.22
-25.46
-34.02
-40.78
-44.30
-43.93
-40.37
-34.96
-28.55
-22.10
-15.67
-9.72
-4.24
1.32
7.90
16.41
26.59
36.90
44.27
46.51
43.22
36.53
30.03
26.82
28.09
32.21
36.41
37.77
35.50
30.57
25.05
21.01
18.72
17.46
15.48
12.12
7.25
1.93
-3.22
-8.12
-13.19
-19.15
-25.51
-31.30
-34.90
-35.62
-34.08
-32.45
-33.20
-37.18
-43.28
-47.87
-47.28
-39.45
-25.72
-10.20
2.17
7.44
5.16
-2.76
-12.49
-21.12
-27.14
-30.28
-30.71
-27.68
-20.31
-7.83
8.47
25.87
40.40
49.00
50.87
47.37
41.54
35.47
29.83
23.11
14.04
3.06
-7.20
-12.50
-10.08
0.18
14.57
28.01
35.75
36.13
30.73
22.21
13.18
4.19
-5.04
-14.84
-23.57
-28.50
-27.02
-18.30
-4.67
9.85
20.56
25.01
23.34
18.04
12.16
7.57
4.53
1.71
-1.93
-6.83
-11.80
-15.16
-15.68
-13.43
-10.41
-9.20
-12.21
-19.28
-28.25
-35.00
-36.04
-30.42
-20.32
-10.37
-4.60
-4.95
-9.44
-13.80
-13.77
-7.05
5.09
19.17
30.95
37.74
38.76
35.52
30.58
26.16
23.61
22.51
21.74
19.49
14.96
8.53
2.33
-1.08
-0.52
3.18
6.61
6.37
0.47
-9.76
-20.76
-28.53
-31.03
-29.74
-27.86
-28.74
-32.94
-38.19
-41.00
-38.88
-32.04
-23.48
-16.97
-14.29
-14.89
-15.99
-14.59
-9.49
-1.35
7.37
14.89
20.72
26.21
33.20
42.55
53.51
63.56
70.24
71.55
67.20
57.83
44.63
29.01
12.31
-3.50
-16.58
-24.88
-27.77
-25.79
-21.01
-15.78
-12.12
-11.04
-12.62
-16.87
-23.11
-30.52
-36.80
-39.22
-35.52
-25.65
-12.58
-0.66
6.04
6.47
2.75
-1.25
-2.49
-0.47
3.06
5.48
6.03
5.45
5.33
6.16
6.91
5.80
1.94
-3.27
-7.21
-6.82
-1.38
7.47
16.09
20.46
18.36
9.60
-3.38
-17.26
-28.12
-33.18
-31.12
-22.83
-11.15
0.25
7.58
8.60
2.89
-7.51
-19.42
-28.88
-32.57
-29.27
-19.71
-6.90
5.85
15.39
20.55
21.77
20.80
19.69
18.95
18.14
15.86
11.50
5.45
-0.50
-4.22
-4.24
-0.14
6.98
15.56
23.55
29.31
31.45
29.19
22.47
11.94
-0.68
-13.47
-23.93
-30.40
-31.87
-28.17
-19.56
-6.73
8.94
25.78
41.17
52.40
56.78
53.31
43.11
29.02
14.76
3.05
-4.62
-9.08
-11.83
-14.48
-17.81
-21.69
-25.89
-30.20
-35.20
-41.08
-47.68
-53.33
-55.44
-51.44
-39.75
-21.76
-0.99
17.25
28.72
31.64
27.69
20.96
15.16
12.06
10.53
8.25
3.26
-3.71
-9.59
-10.83
-5.29
5.60
18.31
27.97
31.39
27.87
19.21
8.54
-1.75
-10.53
-18.41
-26.06
-33.78
-40.53
-44.63
-44.59
-39.40
-29.41
-15.54
-0.04
14.54
25.17
29.54
27.22
19.77
10.82
4.32
3.08
6.94
13.44
18.96
20.40
16.99
9.70
1.31
-5.57
-8.69
-7.22
-1.54
6.81
15.42
22.15
24.96
23.31
17.61
9.52
0.66
-7.86
-15.57
-22.71
-29.14
-34.75
-38.62
-40.15
-38.80
-34.46
-27.66
-19.29
-10.81
-3.27
2.39
6.23
8.97
11.77
16.10
22.64
31.15
39.77
45.88
46.93
42.15
32.97
22.81
15.86
14.92
20.61
30.28
39.65
43.73
39.23
25.69
5.51
-16.63
-35.89
-48.04
-51.41
-46.46
-35.67
-22.69
-11.16
-4.14
-2.73
-6.27
-11.90
-15.74
-14.22
-5.61
8.79
25.15
38.07
43.26
38.96
26.77
10.30
-6.17
-19.17
-26.77
-28.53
-26.01
-21.72
-19.33
-21.72
-29.53
-40.42
-49.47
-52.00
-45.71
-32.58
-17.72
-6.68
-1.90
-1.51
-0.82
4.79
16.29
31.04
43.85
50.34
49.04
41.64
31.84
22.63
15.28
8.63
1.15
-7.77
-16.79
-23.12
-24.20
-19.71
-12.56
-7.39
-8.81
-18.37
-33.22
-47.26
-53.22
-46.62
-27.64
-0.94
26.56
47.77
58.15
56.37
43.67
23.88
1.73
-17.32
-28.91
-30.51
-22.49
-8.16
7.74
20.32
27.58
30.13
31.08
33.27
37.25
40.97
41.09
35.39
24.06
10.22
-2.42
-11.43
-16.74
-20.69
-25.36
-31.26
-36.24
-37.39
-32.61
-22.74
-11.29
-2.30
1.23
-0.51
-5.34
-9.71
-11.14
-8.33
-1.54
8.00
19.12
30.12
39.43
44.97
45.66
41.43
33.64
24.49
15.64
8.14
1.64
-4.53
-11.28
-19.03
-27.45
-35.49
-41.17
-42.96
-39.89
-33.21
-25.70
-20.96
-21.47
-27.36
-36.58
-45.88
-52.80
-55.64
-53.99
-47.26
-34.98
-17.31
3.96
25.34
42.96
53.71
57.23
55.37
51.42
48.23
47.20
48.01
48.98
47.86
42.54
32.16
17.17
-0.27
-16.60
-28.51
-33.76
-32.22
-25.14
-14.99
-4.23
4.64
9.62
9.59
4.52
-3.73
-12.15
-17.31
-17.58
-13.22
-6.46
0.05
4.57
6.52
6.50
4.72
0.98
-5.37
-13.80
-22.42
-28.37
-29.16
-24.33
-15.58
-6.42
-0.65
-0.54
-6.15
-15.22
-24.31
-29.43
-27.85
-18.58
-3.15
14.47
29.28
36.80
35.20
25.75
12.95
1.75
-4.02
-3.41
1.65
8.02
12.50
14.07
13.73
14.23
17.70
24.60
33.34
40.95
45.01
44.39
39.99
33.19
25.01
15.12
2.74
-11.91
-26.87
-38.35
-43.05
-39.58
-29.59
-16.39
-3.56
6.77
14.19
18.70
20.48
18.66
12.77
3.05
-8.99
-20.74
-29.32
-32.33
-28.91
-19.20
-4.77
11.60
26.37
36.13
38.35
31.72
17.15
-2.92
-24.03
-41.23
-50.01
-47.82
-35.27
-16.11
3.86
19.72
28.14
28.88
23.37
13.98
3.10
-7.43
-15.83
-21.20
-23.20
-23.04
-22.60
-23.57
-26.29
-29.00
-29.32
-25.25
-16.52
-4.48
8.19
19.03
26.72
30.59
31.16
29.00
25.57
22.15
19.84
18.54
16.94
13.34
6.26
-3.62
-14.37
-23.12
-27.84
-28.28
-25.35
-20.16
-12.98
-4.00
6.79
18.01
27.57
33.40
34.40
31.29
25.51
18.58
10.84
2.51
-6.02
-13.37
-17.17
-15.86
-8.98
1.56
12.79
21.63
26.31
26.65
23.89
20.51
18.61
19.90
23.82
28.34
30.56
28.49
22.09
13.12
4.52
-2.11
-6.79
-11.70
-18.89
-28.76
-38.94
-45.02
-43.52
-33.48
-18.30
-3.29
6.36
8.53
4.78
-1.12
-5.34
-6.40
-5.21
-4.19
-4.79
-6.56
-7.38
-5.00
0.49
7.15
11.26
10.34
3.60
-7.36
-19.43
-29.80
-36.18
-37.77
-34.65
-28.01
-19.60
-11.68
-6.04
-2.94
-1.54
0.49
4.49
10.39
16.06
18.72
16.60
10.36
3.03
-2.16
-3.01
0.09
5.13
9.60
12.28
13.05
11.99
9.03
3.18
-5.80
-16.76
-27.05
-33.67
-34.86
-30.55
-22.57
-12.95
-3.35
5.55
13.13
18.37
20.00
16.52
7.91
-4.58
-18.44
-31.03
-40.38
-45.28
-45.18
-39.79
-29.92
-17.31
-4.63
5.61
11.97
15.01
16.82
19.66
24.83
31.46
36.87
38.37
35.35
29.78
25.07
24.15
26.76
29.97
29.54
22.75
10.33
-3.85
-14.67
-18.69
-15.75
-9.03
-2.93
-0.61
-2.73
-7.14
-10.75
-10.94
-7.22
-1.00
4.85
7.72
7.04
4.14
1.97
2.44
5.53
8.96
10.14
7.50
1.91
-3.67
-6.45
-4.86
0.28
7.05
13.05
16.70
17.22
14.41
8.78
1.16
-6.46
-11.58
-12.31
-8.29
-1.57
4.60
7.32
5.93
1.77
-2.34
-4.24
-3.26
-0.27
2.91
4.85
4.53
1.98
-2.54
-8.10
-13.90
-18.90
-21.77
-21.69
-18.49
-13.53
-8.55
-5.65
-5.85
-8.90
-13.67
-18.41
-21.94
-23.02
-21.15
-16.00
-7.91
2.50
14.08
25.01
33.54
37.89
37.58
32.84
25.12
16.07
7.27
0.12
-4.24
-4.60
-0.68
7.14
16.64
24.60
27.80
24.29
14.77
1.84
-10.38
-18.91
-22.68
-23.09
-22.11
-21.20
-20.52
-18.93
-16.10
-12.33
-8.96
-6.84
-5.88
-4.89
-2.87
-0.03
2.38
2.67
0.59
-2.30
-3.15
0.29
8.23
18.75
28.25
33.86
33.71
27.78
17.17
3.79
-9.59
-20.33
-25.80
-25.21
-19.32
-11.14
-3.73
0.72
2.02
2.14
2.95
5.61
9.35
12.45
13.29
11.69
8.58
5.59
3.99
3.39
2.90
1.29
-1.41
-4.41
-6.40
-6.34
-4.61
-2.05
-0.13
0.94
1.40
1.88
2.90
4.00
4.47
3.32
0.51
-3.70
-7.70
-9.69
-8.42
-3.53
3.24
9.53
12.83
12.36
9.22
5.81
4.10
4.30
5.20
4.57
1.75
-2.43
-5.46
-5.44
-2.40
1.32
2.28
-1.37
-9.36
-18.69
-25.90
-28.69
-26.88
-22.09
-16.15
-10.36
-4.39
1.98
8.77
14.83
18.35
18.22
14.15
7.81
1.23
-3.23
-4.70
-3.48
-1.17
0.23
-0.68
-4.71
-11.16
-18.62
-24.89
-28.39
-27.93
-23.73
-16.98
-9.21
-2.16
3.31
6.88
9.07
10.39
11.33
12.17
12.62
13.02
13.81
15.85
19.26
23.13
25.78
24.90
19.47
9.88
-1.16
-10.47
-15.02
-13.78
-7.93
0.01
6.87
10.64
10.44
7.36
3.00
-0.54
-2.25
-2.08
-0.83
-0.12
-1.11
-4.58
-10.16
-16.76
-22.45
-24.99
-22.92
-15.75
-5.39
5.33
12.82
14.74
10.93
2.98
-6.24
-14.59
-20.66
-24.75
-27.42
-29.18
-30.12
-29.95
-29.25
-28.55
-28.79
-29.53
-29.54
-26.44
-18.75
-6.56
8.15
22.11
32.91
39.29
41.82
42.04
41.34
40.15
37.69
33.00
25.22
15.05
3.88
-5.86
-12.17
-13.73
-10.26
-2.77
7.36
17.71
25.90
29.25
25.96
15.84
0.85
-14.73
-26.49
-30.82
-27.26
-18.00
-6.89
3.10
10.89
16.93
22.72
28.42
33.33
35.97
35.93
34.11
32.45
32.31
32.95
32.08
26.37
14.22
-3.59
-23.53
-40.74
-51.19
-52.97
-47.85
-39.50
-32.28
-28.55
-28.23
-28.86
-27.26
-21.68
-11.92
0.16
12.20
21.70
27.03
27.27
21.88
11.82
-0.98
-13.03
-21.31
-24.08
-22.42
-19.13
-16.87
-16.65
-16.64
-14.27
-7.58
2.96
14.80
25.09
32.01
35.77
36.96
36.17
32.78
26.31
17.19
7.60
0.65
-1.54
1.46
7.39
12.94
14.40
10.07
0.83
-9.94
-17.71
-19.37
-14.35
-5.61
2.34
5.62
3.30
-2.23
-7.17
-8.51
-6.47
-3.50
-2.25
-2.98
-3.28
-0.18
7.37
16.37
21.63
18.74
7.25
-9.06
-24.44
-34.12
-36.95
-34.54
-30.08
-25.51
-21.31
-16.70
-11.25
-5.59
-1.09
0.66
-0.09
-1.85
-1.83
2.22
10.73
21.87
31.55
35.81
31.97
20.64
5.03
-10.17
-20.91
-25.72
-25.69
-23.66
-21.92
-21.35
-20.83
-18.15
-11.45
-0.32
13.23
26.06
34.49
36.31
31.37
22.19
12.66
6.23
4.81
7.54
12.32
16.26
17.80
16.68
13.75
10.29
6.90
3.93
0.62
-3.26
-7.62
-11.55
-13.85
-13.63
-11.10
-8.09
-6.64
-8.43
-13.65
-20.73
-26.79
-28.79
-25.20
-16.06
-3.83
8.16
16.03
17.72
13.28
5.00
-3.18
-7.69
-6.47
-0.66
6.78
11.88
12.00
7.04
-1.04
-8.72
-13.76
-15.39
-15.43
-16.43
-20.38
-27.06
-33.77
-36.71
-32.62
-21.04
-4.66
11.29
22.03
25.18
21.81
15.83
11.00
9.64
10.80
12.11
11.10
6.94
0.86
-4.81
-7.46
-6.03
-0.37
8.02
17.03
24.43
28.26
27.70
23.35
17.37
12.02
8.51
6.51
4.83
2.52
0.27
-0.33
1.62
5.44
8.30
7.37
1.38
-7.87
-16.69
-21.73
-21.63
-17.78
-12.49
-7.59
-3.44
0.56
4.58
7.72
8.31
5.79
0.96
-3.99
-6.66
-5.88
-2.26
2.42
6.30
7.91
6.90
3.54
-0.99
-5.35
-7.86
-7.31
-3.62
1.87
6.62
8.25
5.55
-0.26
-6.38
-9.56
-7.97
-2.55
4.16
9.25
11.60
12.05
12.90
15.84
20.22
23.74
23.44
18.08
9.08
-0.20
-6.07
-6.55
-1.89
5.02
10.87
12.69
9.46
2.04
-6.99
-14.52
-18.27
-17.56
-13.82
-9.40
-6.64
-6.61
-9.05
-12.55
-15.64
-17.78
-19.13
-20.75
-22.79
-24.71
-25.03
-22.16
-15.28
-4.92
6.55
16.21
21.49
21.53
17.30
10.88
4.74
0.32
-1.40
-0.26
3.97
10.92
19.16
26.22
29.12
25.95
16.57
3.60
-9.06
-17.19
-18.55
-13.00
-2.70
8.62
17.30
20.28
16.57
7.57
-2.99
-10.86
-12.83
-8.34
0.08
8.45
13.44
14.44
13.29
12.89
14.78
17.50
18.16
13.52
3.01
-11.00
-24.10
-32.00
-32.74
-26.97
-17.81
-8.75
-2.95
-1.67
-4.95
-11.66
-20.06
-28.68
-35.72
-39.75
-39.16
-33.21
-21.62
-5.66
11.98
28.03
39.21
43.85
41.94
35.48
26.65
17.31
8.34
-0.38
-8.23
-14.14
-16.24
-13.71
-7.15
1.16
7.85
10.54
8.35
2.59
-4.73
-11.61
-17.12
-20.67
-21.80
-20.40
-16.61
-11.54
-6.37
-1.98
2.00
6.58
12.26
18.03
21.07
18.79
10.02
-2.91
-15.67
-23.26
-22.98
-16.06
-6.26
1.68
5.27
4.90
3.51
4.42
9.20
16.64
23.28
25.89
23.08
16.83
10.74
8.48
11.34
17.68
24.23
27.65
26.64
21.78
15.20
9.05
4.95
3.41
3.89
5.18
5.08
1.66
-6.88
-20.86
-38.64
-56.75
-70.26
-75.00
-68.40
-51.31
-27.87
-4.31
13.53
22.22
22.12
16.85
10.60
6.39
4.52
3.48
1.54
-2.07
-6.51
-10.42
-12.43
-12.52
-10.65
-6.75
-0.36
8.81
19.96
30.75
37.81
38.96
33.90
24.83
14.76
5.92
-1.07
-7.04
-12.51
-17.13
-19.33
-17.96
-13.14
-6.85
-2.10
-0.88
-3.30
-7.59
-11.61
-13.94
-14.61
-14.92
-15.99
-18.36
-21.10
-22.98
-22.66
-19.43
-13.39
-5.69
2.20
8.84
13.09
14.79
13.64
9.75
3.35
-4.21
-10.14
-11.26
-5.20
7.19
22.32
34.39
38.81
34.42
24.11
13.42
7.32
8.34
15.31
24.89
33.36
38.02
38.03
33.73
26.71
18.61
11.34
6.08
3.37
2.72
3.11
3.68
3.30
1.43
-2.45
-8.09
-14.93
-21.46
-25.58
-25.52
-20.25
-11.29
-1.69
4.66
5.48
0.87
-6.09
-11.01
-10.84
-4.99
4.04
12.58
17.68
18.49
15.86
11.40
6.08
-0.68
-9.47
-20.34
-31.50
-40.25
-44.59
-44.23
-41.19
-38.05
-36.87
-37.17
-36.67
-32.09
-21.77
-6.67
9.98
23.67
31.31
32.31
29.10
24.77
21.23
18.16
13.53
6.26
-2.41
-8.75
-9.19
-2.67
7.64
16.30
18.79
14.01
5.48
-1.56
-3.29
0.26
5.96
9.77
9.21
5.08
-0.18
-3.53
-3.45
0.41
7.05
14.92
22.25
27.01
27.85
24.08
16.86
7.85
-1.38
-9.92
-17.55
-23.75
-27.49
-27.02
-21.87
-13.22
-4.47
0.53
-0.23
-6.22
-14.06
-19.83
-20.90
-17.75
-12.72
-8.64
-7.16
-7.77
-9.23
-10.05
-9.91
-8.40
-5.42
-0.43
6.64
14.07
19.03
18.06
10.04
-3.11
-16.06
-22.68
-18.85
-4.28
16.97
39.20
56.67
66.62
68.84
65.13
57.56
47.16
34.38
19.13
2.47
-13.86
-27.34
-36.31
-40.88
-42.69
-44.11
-46.35
-49.59
-52.25
-52.83
-50.36
-44.72
-36.35
-25.25
-11.50
4.78
21.94
37.26
47.36
49.82
44.30
32.08
16.12
-0.59
-14.86
-24.57
-28.52
-26.98
-21.48
-13.89
-6.13
1.08
7.51
13.21
17.88
20.84
21.47
19.52
16.10
12.36
9.73
8.83
9.78
11.92
14.22
15.24
12.87
5.51
-7.54
-24.44
-41.43
-53.80
-57.84
-52.96
-41.20
-26.92
-13.91
-4.12
2.97
9.02
15.31
21.65
25.60
24.64
17.26
4.89
-8.58
-17.94
-19.42
-12.36
0.93
15.72
28.02
35.33
37.62
36.04
32.32
27.63
22.53
17.70
13.51
10.70
9.41
9.65
11.45
14.44
18.21
21.50
22.95
21.13
15.68
7.36
-2.30
-11.38
-19.16
-25.46
-30.95
-35.43
-38.16
-37.17
-30.64
-17.76
0.67
21.30
39.72
51.26
53.38
46.32
33.60
20.35
10.50
5.38
2.49
-1.91
-10.93
-24.80
-40.40
-52.95
-58.36
-55.79
-47.22
-36.66
-27.10
-19.51
-12.88
-5.88
0.87
4.94
2.82
-6.77
-22.25
-38.56
-49.59
-51.12
-42.14
-25.44
-5.29
13.95
29.63
39.93
43.87
41.17
32.53
20.79
10.05
4.89
7.63
17.42
30.34
41.36
46.86
46.02
40.86
33.92
27.15
20.41
12.49
2.41
-9.52
-21.50
-31.74
-38.82
-42.76
-43.66
-41.56
-36.24
-27.86
-18.28
-10.58
-7.83
-10.74
-17.23
-22.61
-22.04
-12.79
4.15
24.29
41.56
50.15
47.52
35.01
17.87
2.94
-4.23
-1.17
9.70
23.01
32.67
35.14
30.54
21.91
12.89
5.30
-1.06
-7.62
-14.57
-20.87
-24.72
-24.92
-22.29
-18.48
-15.37
-13.07
-10.83
-7.58
-3.56
-0.04
1.34
0.13
-2.17
-3.32
-1.32
3.44
9.18
13.78
16.03
16.43
15.56
13.97
11.12
6.87
1.65
-2.97
-5.55
-5.90
-5.35
-6.57
-11.10
-18.77
-27.11
-32.71
-33.43
-29.05
-21.74
-13.98
-7.98
-4.06
-2.03
-1.10
-1.33
-3.41
-8.04
-15.38
-23.76
-30.66
-32.98
-29.12
-19.75
-7.28
4.49
12.92
16.66
16.74
14.88
13.33
13.40
15.48
19.58
24.67
29.75
32.95
32.74
28.34
20.62
11.91
4.75
1.15
0.75
1.78
1.34
-2.18
-8.64
-15.69
-19.82
-18.53
-11.25
-0.36
10.45
17.83
20.22
18.47
14.95
12.04
10.19
8.71
6.12
2.23
-1.49
-2.93
-0.61
4.18
8.42
8.55
3.20
-5.94
-14.86
-19.59
-18.69
-13.62
-8.25
-5.89
-8.01
-12.99
-17.86
-20.09
-18.48
-13.72
-7.29
-0.68
5.32
10.36
14.35
16.66
16.53
13.81
8.67
2.47
-3.08
-6.39
-6.70
-4.73
-2.16
-1.23
-2.66
-5.57
-7.40
-5.48
1.02
10.16
18.06
21.08
17.64
9.95
1.83
-2.74
-2.39
1.39
5.50
7.36
6.41
3.80
1.52
0.40
-0.09
-1.46
-5.28
-11.57
-18.98
-24.80
-26.51
-22.58
-13.59
-2.14
8.26
13.98
13.70
8.27
0.71
-5.33
-7.62
-6.27
-3.21
-0.57
0.03
-1.02
-2.60
-3.34
-3.04
-2.30
-1.70
-1.32
-0.14
2.27
5.54
7.86
7.48
4.29
0.36
-0.87
2.95
11.34
20.08
24.08
20.19
9.07
-4.87
-16.45
-21.95
-21.19
-16.39
-10.62
-6.12
-3.74
-3.60
-5.04
-7.33
-9.15
-9.13
-6.09
-0.04
7.17
13.03
15.20
13.32
8.52
3.04
-1.86
-5.64
-8.42
-9.81
-8.67
-4.02
4.43
14.81
23.97
28.78
27.67
21.37
11.98
2.39
-5.43
-9.93
-10.34
-6.39
1.26
10.12
16.39
16.32
8.22
-6.72
-24.07
-38.09
-44.41
-41.27
-30.46
-15.83
-1.86
8.69
14.66
17.03
17.52
17.49
17.32
16.07
12.99
8.11
3.16
0.84
3.42
10.92
20.22
26.71
26.07
16.97
1.43
-15.64
-28.84
-34.48
-31.77
-22.92
-11.57
-2.17
2.00
-0.69
-9.90
-22.45
-33.41
-37.87
-33.23
-20.36
-3.88
10.49
19.04
21.55
20.89
20.40
22.05
24.93
26.55
24.12
16.65
5.20
-7.53
-17.91
-22.75
-20.07
-10.47
3.41
17.24
26.88
30.38
28.46
24.10
20.33
18.95
19.70
20.68
20.33
18.18
14.98
12.06
10.95
12.30
16.09
21.37
26.60
29.51
27.49
19.08
4.52
-13.12
-29.16
-38.60
-38.57
-29.89
-16.82
-5.28
0.41
-1.19
-7.73
-15.79
-23.02
-29.20
-35.50
-42.38
-48.02
-48.48
-40.51
-23.77
-1.89
19.12
33.72
39.01
36.25
28.80
20.49
13.18
7.19
1.84
-3.39
-8.00
-11.35
-12.84
-12.92
-12.45
-12.61
-14.27
-17.78
-23.03
-28.89
-33.86
-35.49
-32.01
-23.12
-10.70
1.32
8.50
8.06
0.43
-11.62
-23.95
-33.42
-38.46
-38.89
-35.42
-28.65
-19.80
-10.82
-4.57
-2.66
-4.79
-8.25
-9.27
-5.89
1.46
9.59
15.55
18.32
19.74
22.89
29.63
39.26
47.99
51.97
48.89
40.06
29.48
21.88
20.03
23.29
28.37
30.60
27.11
17.87
6.01
-4.06
-9.33
-9.37
-6.40
-3.37
-2.91
-5.39
-9.71
-13.73
-15.45
-13.90
-8.79
-1.25
7.04
13.66
16.47
14.33
8.10
0.66
-4.70
-5.20
-0.47
8.29
18.59
27.73
33.08
32.58
25.40
12.08
-4.30
-19.35
-28.51
-29.17
-22.25
-11.61
-2.42
1.89
0.55
-3.96
-8.21
-9.26
-6.24
-0.28
6.83
12.94
16.64
16.88
13.21
5.69
-4.83
-16.35
-26.25
-31.18
-29.08
-19.42
-4.04
13.47
28.61
37.31
37.33
28.54
13.90
-2.27
-15.19
-21.43
-20.12
-13.38
-5.40
-0.43
-1.48
-8.26
-17.92
-26.14
-29.58
-27.73
-22.50
-17.07
-13.56
-12.31
-11.38
-8.84
-4.00
1.86
6.24
7.29
4.71
0.21
-4.00
-6.33
-6.43
-5.23
-3.83
-3.54
-4.42
-6.18
-7.81
-8.30
-7.08
-4.51
-1.75
0.13
0.39
-0.39
-1.01
-0.38
1.62
4.16
6.18
7.26
8.15
9.73
13.00
17.83
23.34
28.38
32.40
35.48
37.83
39.74
40.55
38.96
33.59
23.73
10.34
-4.15
-16.11
-22.91
-23.54
-19.73
-15.16
-13.42
-16.27
-22.74
-30.34
-36.39
-39.66
-40.10
-38.51
-35.02
-29.17
-20.80
-10.33
0.33
9.23
15.13
18.01
18.58
17.75
16.13
13.88
11.83
11.02
12.85
17.88
25.19
32.08
35.04
31.61
20.91
4.88
-13.05
-28.92
-39.77
-44.43
-43.62
-39.47
-33.70
-27.29
-19.48
-9.47
2.98
16.29
27.58
34.49
35.92
33.12
28.35
23.81
20.14
16.73
13.11
9.60
7.96
9.43
13.55
17.25
16.70
9.55
-3.21
-17.10
-27.28
-30.83
-29.01
-25.73
-25.10
-28.52
-34.37
-39.86
-42.99
-44.53
-45.94
-48.09
-49.24
-46.22
-36.39
-19.34
2.06
23.46
40.41
50.76
54.52
53.67
51.20
49.54
50.33
53.35
56.92
57.95
53.58
42.43
25.62
6.97
-8.73
-17.09
-16.29
-7.06
7.27
22.13
32.92
36.19
30.76
17.34
-0.86
-19.91
-35.62
-44.97
-46.50
-40.46
-28.87
-14.91
-2.90
3.43
1.25
-9.46
-25.79
-42.91
-55.22
-59.06
-53.27
-39.41
-20.08
1.95
24.43
44.85
60.10
67.25
63.98
50.84
31.22
10.74
-4.93
-12.14
-10.44
-2.89
6.23
12.53
13.55
8.63
-1.08
-13.70
-26.82
-37.95
-44.95
-46.33
-42.68
-36.03
-29.51
-25.91
-25.98
-28.12
-28.69
-24.46
-14.05
0.75
16.30
28.46
34.36
33.10
25.11
12.03
-4.25
-20.67
-33.63
-39.12
-34.50
-20.24
0.19
20.69
35.45
41.01
38.06
30.35
22.61
17.97
16.38
15.45
11.84
4.35
-5.72
-14.95
-20.45
-21.44
-18.91
-14.81
-9.87
-3.59
5.14
15.70
25.50
30.75
28.92
21.24
11.73
5.58
5.35
10.24
16.38
19.58
18.17
13.02
6.73
1.22
-2.87
-6.24
-9.63
-12.73
-14.50
-13.50
-9.43
-2.84
4.80
12.74
20.60
28.04
34.45
38.52
39.03
34.82
26.42
15.20
3.53
-6.45
-13.64
-17.41
-18.29
-16.76
-13.92
-10.54
-8.03
-7.74
-10.08
-14.54
-19.23
-22.00
-20.93
-15.78
-7.75
0.75
6.34
6.10
-1.30
-14.69
-30.64
-43.88
-49.58
-45.24
-31.87
-13.77
3.70
15.73
20.49
18.51
12.34
4.61
-2.50
-7.40
-9.20
-7.21
-1.63
6.72
15.83
23.39
27.60
27.42
23.29
16.63
9.88
4.70
1.95
1.08
0.77
-0.24
-2.19
-4.20
-5.17
-4.41
-2.70
-1.26
-0.92
-1.38
-1.47
-0.70
0.57
0.12
-4.00
-12.34
-22.39
-29.59
-29.86
-21.85
-8.27
6.09
16.30
20.08
18.17
13.02
6.99
0.85
-5.65
-13.57
-22.87
-32.11
-38.41
-38.99
-32.86
-21.76
-10.32
-3.42
-4.35
-12.56
-24.18
-33.72
-36.88
-33.10
-24.59
-15.00
-6.23
2.10
12.22
25.27
39.46
50.78
54.77
50.12
38.97
26.13
15.92
10.30
8.92
10.26
13.84
19.55
27.44
36.02
42.53
43.83
38.06
26.15
10.96
-3.44
-14.02
-19.02
-18.47
-13.20
-4.41
6.01
15.86
22.57
24.66
21.58
14.56
5.51
-3.73
-11.82
-18.56
-23.84
-28.10
-30.89
-31.28
-27.60
-18.73
-5.63
8.65
18.98
21.36
14.39
0.82
-14.03
-24.76
-28.53
-26.11
-20.17
-14.27
-10.12
-7.94
-6.50
-4.79
-2.59
-0.68
-0.65
-3.46
-9.42
-16.45
-20.99
-18.95
-8.19
9.37
28.09
40.47
41.86
32.25
17.04
3.53
-3.14
-1.95
4.03
10.49
14.09
14.62
13.70
13.78
16.09
20.05
23.93
25.21
22.36
15.07
4.94
-5.60
-13.57
-16.97
-15.49
-10.27
-3.94
1.18
3.41
2.58
-0.78
-5.66
-10.88
-15.42
-17.73
-16.92
-12.76
-6.62
-0.93
1.52
-0.80
-7.51
-17.01
-26.75
-34.99
-40.82
-44.53
-46.26
-45.73
-42.63
-36.89
-29.75
-22.71
-17.11
-12.66
-7.79
-0.95
8.26
18.55
27.89
34.56
38.41
40.01
40.09
38.59
34.56
27.53
17.45
5.89
-5.21
-13.70
-18.49
-19.76
-18.13
-14.82
-10.52
-5.94
-1.21
3.06
6.34
8.03
7.43
4.80
0.59
-3.54
-6.19
-6.14
-3.29
1.51
6.66
10.51
11.80
9.72
4.64
-2.26
-8.78
-12.54
-12.21
-7.50
-0.05
8.08
14.41
17.49
16.68
12.24
5.63
-1.31
-6.05
-6.79
-2.34
6.22
16.37
25.01
29.82
30.67
28.79
26.62
25.47
25.88
26.90
27.43
26.36
23.01
17.35
9.59
0.52
-8.64
-16.12
-19.92
-18.93
-13.26
-5.33
1.79
4.86
2.59
-4.30
-13.39
-21.84
-27.80
-30.48
-30.69
-29.02
-26.25
-22.45
-18.20
-14.53
-12.80
-14.22
-18.34
-23.70
-27.85
-29.16
-26.97
-21.78
-14.74
-6.67
1.61
9.42
15.60
19.16
19.54
17.16
13.67
10.49
8.50
7.28
5.89
3.58
0.82
-1.47
-2.30
-1.30
1.20
4.71
8.48
12.01
14.15
13.71
10.00
3.44
-3.86
-9.09
-10.09
-6.51
-0.12
5.70
7.94
5.32
-1.22
-8.68
-14.26
-16.04
-14.20
-10.33
-6.33
-3.02
0.11
4.06
9.35
14.76
18.06
17.33
12.64
6.17
1.04
-0.72
0.30
2.01
2.31
0.98
-0.03
1.97
8.35
17.68
26.02
29.14
24.91
13.93
-0.27
-13.19
-21.60
-24.58
-23.52
-20.61
-17.38
-13.25
-6.60
4.50
20.03
36.93
50.13
54.57
48.16
32.85
14.15
-1.70
-10.31
-11.05
-6.82
-1.59
1.66
2.58
2.42
2.62
3.55
4.20
2.98
-1.00
-6.48
-11.55
-14.62
-15.42
-14.98
-14.61
-14.99
-15.84
-16.45
-16.34
-16.16
-16.72
-18.82
-22.21
-25.67
-27.96
-28.28
-27.26
-25.49
-23.51
-20.94
-17.20
-12.41
-7.67
-4.84
-4.82
-7.19
-9.78
-10.16
-6.83
-0.47
6.23
10.66
11.16
8.74
6.15
6.55
11.87
21.49
32.92
42.49
47.20
45.29
37.63
26.90
16.62
9.76
7.54
9.10
11.85
13.46
12.23
8.05
1.74
-5.39
-12.21
-17.51
-19.67
-17.47
-10.24
0.51
11.54
18.59
17.99
8.79
-6.78
-24.05
-37.93
-44.52
-42.36
-32.40
-16.97
0.14
15.32
25.46
29.49
28.26
24.26
20.19
17.50
15.86
13.74
10.41
6.19
3.05
2.56
5.09
8.82
10.94
9.40
3.96
-3.06
-8.77
-10.95
-9.13
-4.71
-0.38
1.39
-1.16
-8.71
-20.12
-32.83
-43.21
-47.50
-43.55
-31.96
-16.21
-0.86
9.59
13.25
10.98
6.21
3.24
5.00
12.15
22.05
30.45
32.49
25.48
9.73
-11.04
-30.55
-42.54
-42.71
-30.69
-9.65
14.93
37.65
54.30
62.17
60.30
48.89
30.04
7.42
-14.00
-29.62
-36.46
-34.05
-24.50
-11.34
1.26
10.34
14.11
12.81
8.11
2.09
-3.15
-6.83
-8.89
-10.47
-12.03
-13.62
-14.70
-14.79
-14.54
-15.06
-17.27
-20.21
-21.90
-20.00
-13.35
-3.35
7.27
15.08
17.95
15.25
8.21
-1.08
-9.95
-15.70
-16.33
-11.04
-0.88
11.76
23.03
29.51
29.39
23.09
13.05
2.24
-6.37
-11.82
-14.60
-16.30
-18.01
-19.32
-18.51
-13.46
-3.97
7.85
17.35
20.06
14.01
0.63
-15.59
-29.63
-37.79
-39.24
-34.83
-26.53
-15.72
-3.21
9.75
21.19
28.12
28.43
21.69
10.27
-2.08
-11.46
-15.62
-15.03
-11.07
-5.46
0.82
6.77
11.37
13.00
10.52
4.96
-0.78
-2.41
2.37
12.77
24.48
32.09
31.71
22.81
8.66
-6.34
-18.14
-25.55
-29.14
-30.28
-29.75
-26.73
-19.85
-7.91
8.04
25.14
39.03
46.25
46.00
39.96
31.58
23.41
16.22
8.62
-0.69
-11.82
-23.06
-31.18
-33.83
-30.00
-21.20
-9.83
1.11
9.56
14.80
17.27
18.84
21.19
25.69
31.44
36.21
37.14
32.79
24.00
13.05
2.95
-5.06
-10.89
-15.34
-18.47
-19.22
-16.17
-8.83
0.95
9.78
13.47
9.90
-0.02
-12.14
-20.82
-21.90
-14.55
-2.00
10.51
17.76
17.62
11.35
2.49
-5.75
-13.07
-21.59
-34.35
-51.43
-68.69
-78.81
-75.70
-58.71
-33.11
-8.14
8.41
13.73
10.94
6.10
4.80
9.44
18.57
29.45
39.47
47.52
52.72
54.17
50.49
40.86
26.14
9.04
-6.15
-15.76
-17.47
-11.88
-1.71
8.90
15.86
16.95
11.74
2.13
-9.00
-18.31
-23.60
-24.32
-21.32
-16.83
-13.20
-12.24
-13.74
-16.25
-17.17
-14.37
-7.26
2.93
13.57
22.52
28.47
31.82
33.34
33.65
32.45
28.86
22.69
14.51
6.18
-0.74
-5.41
-8.38
-10.81
-12.91
-14.27
-13.77
-11.52
-8.43
-6.56
-7.29
-10.34
-13.45
-13.74
-10.04
-3.29
3.24
6.58
4.73
-1.77
-10.69
-19.15
-24.22
-24.14
-18.22
-7.84
4.32
14.57
19.48
17.33
8.79
-2.66
-12.34
-15.77
-11.11
-0.03
12.70
21.05
20.71
10.87
-4.66
-19.25
-26.04
-21.67
-7.44
11.23
27.42
36.09
35.39
27.30
15.50
4.06
-4.05
-7.76
-7.89
-6.69
-6.36
-8.58
-13.22
-18.30
-20.87
-18.49
-11.00
-0.47
9.25
15.09
16.25
14.93
14.53
17.41
23.35
29.52
32.63
30.96
25.69
19.64
15.60
14.76
16.20
17.85
17.45
14.36
9.18
3.30
-2.15
-6.46
-9.91
-13.43
-17.42
-22.00
-26.01
-27.84
-25.68
-18.80
-8.33
3.21
12.51
17.86
19.46
20.14
22.83
28.76
36.55
43.07
45.58
43.86
41.18
41.97
49.29
61.70
74.13
79.97
74.46
57.35
32.68
6.88
-14.73
-28.94
-35.59
-36.63
-35.02
-33.86
-35.10
-39.43
-45.17
-49.42
-49.22
-43.95
-36.04
-30.01
-30.28
-37.83
-49.37
-58.72
-60.74
-53.90
-41.83
-30.89
-26.43
-29.97
-37.83
-44.30
-44.15
-36.04
-22.31
-7.20
5.62
14.83
20.57
24.04
25.38
24.33
20.43
14.19
7.11
0.83
-3.62
-6.52
-8.30
-9.48
-9.27
-6.74
-1.80
3.61
5.88
2.13
-8.49
-23.08
-36.90
-45.45
-47.01
-43.45
-38.38
-35.03
-33.62
-31.98
-27.06
-17.67
-5.33
6.90
16.02
21.40
23.83
25.17
26.15
26.18
24.03
19.36
13.87
10.46
12.44
20.82
33.72
46.10
52.05
47.50
32.02
10.24
-10.55
-22.77
-22.77
-12.32
1.83
11.43
11.38
1.75
-12.05
-23.05
-25.89
-19.98
-9.01
1.60
7.40
7.42
3.16
-2.03
-5.51
-6.09
-4.12
-0.57
4.19
10.23
18.33
28.25
38.74
46.62
48.17
40.96
25.08
4.37
-15.86
-30.30
-36.74
-36.07
-31.36
-25.56
-19.62
-12.87
-3.78
7.49
19.32
28.66
33.40
33.73
31.53
29.45
28.65
28.66
27.54
24.08
17.92
9.95
1.40
-7.15
-14.96
-21.80
-26.62
-28.97
-28.86
-27.58
-27.11
-28.71
-32.80
-37.71
-41.61
-43.37
-43.29
-42.13
-40.36
-37.32
-31.12
-20.99
-7.84
5.18
14.38
17.43
14.67
8.81
3.26
0.33
-0.18
0.36
-0.30
-3.12
-7.55
-12.04
-14.85
-14.99
-11.81
-5.54
3.61
14.36
24.78
32.60
35.82
34.28
29.41
23.61
18.09
12.69
5.61
-4.83
-17.89
-30.51
-38.08
-37.33
-27.86
-13.40
0.69
9.96
13.03
12.13
10.77
11.91
15.55
19.47
20.47
17.37
11.92
7.89
9.26
17.16
29.67
41.98
49.33
49.06
42.00
31.61
21.49
14.13
9.17
5.17
0.74
-4.18
-8.43
-10.86
-11.20
-10.92
-11.40
-13.51
-16.28
-17.72
-16.27
-11.60
-5.21
0.74
4.27
5.04
3.51
0.67
-2.63
-6.08
-9.11
-11.51
-13.15
-14.79
-17.47
-22.17
-29.28
-38.10
-47.40
-54.72
-57.78
-54.35
-43.84
-27.79
-10.34
3.39
9.83
8.49
2.63
-3.48
-6.77
-7.05
-6.24
-5.99
-5.81
-3.13
3.98
15.17
26.69
33.96
34.48
29.40
22.91
19.01
19.44
22.49
25.08
24.94
22.10
18.37
15.63
15.14
16.44
18.70
20.65
21.84
22.52
23.82
26.81
31.29
35.75
36.86
31.84
19.61
2.46
-15.14
-28.57
-35.40
-36.91
-36.19
-36.36
-38.03
-39.55
-38.40
-33.41
-25.93
-18.63
-14.23
-13.28
-14.42
-14.77
-12.34
-6.81
0.73
8.02
13.53
16.58
17.91
18.53
19.58
21.13
22.25
21.94
19.20
14.64
9.10
3.89
-0.82
-5.47
-10.82
-17.05
-22.76
-26.02
-24.53
-17.47
-5.63
8.04
19.67
26.28
26.61
21.92
14.47
7.19
1.55
-2.54
-6.13
-10.22
-14.67
-18.04
-18.16
-13.83
-5.38
4.84
13.62
18.61
19.22
17.23
15.17
15.15
16.85
18.44
17.37
12.28
4.34
-3.67
-8.48
-8.61
-4.59
0.99
5.47
7.27
6.43
4.28
1.67
-1.44
-6.23
-13.59
-23.53
-34.17
-42.71
-46.46
-43.70
-34.74
-21.86
-8.66
1.71
7.53
9.02
8.11
6.81
6.88
8.27
10.05
10.71
9.30
6.19
2.81
1.28
2.93
7.93
14.39
19.92
22.10
19.32
11.49
-0.17
-13.29
-25.43
-34.29
-39.00
-39.83
-38.25
-36.67
-36.63
-38.06
-38.82
-36.26
-28.26
-15.18
0.32
14.97
25.97
32.56
35.05
34.80
32.81
29.89
26.76
23.69
20.42
16.02
9.81
1.36
-8.01
-15.89
-19.80
-18.39
-12.61
-4.50
3.28
9.12
12.22
12.83
11.59
9.12
6.64
5.02
4.99
6.15
7.86
9.42
10.65
12.06
13.74
15.22
14.98
11.92
5.87
-1.16
-5.82
-4.96
2.56
15.06
28.59
37.86
39.30
32.22
19.75
7.53
0.69
1.65
7.95
13.83
12.84
1.92
-17.26
-38.82
-55.23
-61.33
-55.73
-41.68
-24.57
-9.83
-1.02
0.76
-3.82
-12.93
-24.62
-36.32
-45.75
-50.58
-49.23
-41.41
-28.60
-13.77
-0.25
8.97
12.71
11.31
6.61
1.13
-2.49
-1.83
4.35
15.77
29.54
41.72
48.17
47.11
39.45
28.28
17.26
8.13
0.94
-5.90
-13.51
-22.02
-30.32
-36.62
-39.86
-39.17
-34.58
-26.15
-14.91
-2.12
10.57
21.87
31.44
39.31
45.81
50.29
51.90
49.81
44.24
36.14
26.77
17.43
8.53
0.99
-4.41
-6.22
-4.09
1.10
7.13
11.03
11.05
6.83
-0.10
-7.75
-14.35
-18.76
-20.75
-20.62
-19.16
-16.50
-12.96
-8.09
-1.84
4.92
10.23
11.40
6.83
-3.18
-15.14
-24.49
-27.44
-23.69
-16.46
-10.15
-7.85
-8.91
-10.07
-7.52
-0.43
8.58
14.99
15.39
9.95
1.86
-4.36
-6.15
-3.96
-0.70
0.78
-0.31
-2.80
-4.46
-4.45
-3.20
-2.22
-2.41
-2.78
-1.32
3.79
11.77
19.80
23.41
19.83
9.48
-3.88
-14.66
-18.33
-13.47
-2.66
9.88
20.11
26.51
29.78
31.38
31.98
30.60
25.79
16.33
3.21
-11.16
-23.78
-32.33
-36.26
-36.01
-32.70
-27.13
-20.03
-11.97
-3.98
2.37
6.07
6.40
4.12
0.27
-3.46
-5.77
-5.91
-3.71
0.57
6.38
12.85
19.14
23.76
25.70
24.44
20.65
16.01
12.29
11.14
12.72
16.46
20.55
23.51
24.40
22.65
18.06
10.52
0.12
-12.77
-26.39
-38.03
-44.19
-41.92
-30.76
-13.23
4.79
16.64
17.27
6.14
-12.64
-31.63
-43.56
-44.29
-33.89
-16.37
2.85
18.50
27.55
29.46
25.24
16.82
5.98
-5.45
-16.00
-24.08
-27.93
-26.09
-17.81
-4.25
11.95
26.62
36.12
38.43
34.41
26.92
19.32
14.00
11.25
10.28
9.43
7.67
4.22
-1.25
-8.50
-16.87
-25.09
-31.41
-34.13
-33.12
-29.60
-26.04
-24.65
-26.06
-29.18
-31.50
-31.05
-27.33
-21.47
-15.02
-9.07
-3.76
1.33
5.74
8.32
7.18
1.81
-6.56
-14.47
-17.90
-14.82
-5.71
5.76
15.08
18.91
16.98
11.75
7.30
6.96
11.43
18.54
23.87
23.56
15.75
2.33
-12.06
-22.38
-25.14
-20.23
-9.80
2.68
14.76
24.99
33.01
38.37
40.35
38.92
34.45
28.72
23.47
20.21
19.16
19.17
18.82
16.74
12.65
7.04
1.46
-2.87
-5.51
-7.09
-9.01
-11.94
-15.57
-17.95
-17.24
-12.35
-4.32
4.47
11.71
15.89
17.46
17.08
15.00
10.78
4.44
-2.62
-8.08
-9.50
-6.80
-1.82
2.01
2.84
0.95
-1.35
-1.75
-0.04
2.19
1.80
-3.15
-12.70
-24.42
-35.22
-42.87
-46.52
-47.08
-45.36
-42.28
-37.79
-32.02
-25.21
-18.09
-11.79
-6.72
-2.84
0.99
5.95
12.60
19.76
24.72
24.70
18.02
6.14
-7.39
-17.74
-21.74
-18.79
-10.99
-1.53
7.49
15.40
23.21
31.02
38.01
41.88
40.81
35.24
27.76
22.24
21.06
24.32
29.26
32.24
30.42
22.89
11.47
-1.33
-12.80
-21.51
-26.80
-29.18
-29.27
-27.63
-25.03
-21.57
-17.28
-11.80
-5.15
2.21
8.63
12.41
12.23
7.41
-0.88
-11.08
-21.11
-29.47
-35.05
-37.19
-35.53
-30.09
-21.82
-12.53
-5.16
-2.21
-4.61
-11.01
-17.81
-21.30
-18.72
-9.98
3.13
17.35
29.97
39.50
45.61
48.76
49.15
46.72
40.97
32.55
22.96
14.90
10.75
11.42
15.82
20.89
23.22
20.02
10.78
-2.71
-17.67
-31.15
-41.26
-47.01
-48.20
-44.51
-36.49
-25.04
-12.13
-0.25
8.68
13.36
14.12
12.22
9.92
9.19
11.52
17.00
24.05
29.85
30.94
25.24
12.60
-4.07
-20.44
-32.42
-38.11
-38.69
-36.84
-35.25
-34.32
-32.36
-26.94
-16.75
-2.77
12.03
24.03
31.16
32.89
30.69
26.58
22.28
18.69
15.89
13.63
11.35
9.20
7.18
6.08
6.90
10.33
15.76
21.01
23.45
20.67
12.91
2.69
-6.35
-11.29
-11.67
-9.19
-6.81
-6.14
-7.65
-10.26
-12.79
-14.64
-15.47
-15.19
-13.18
-9.24
-3.73
1.78
4.87
3.35
-3.38
-13.82
-25.17
-33.91
-37.74
-35.58
-27.62
-15.27
-0.91
12.29
21.58
24.89
22.58
16.32
8.86
2.18
-2.76
-5.79
-7.24
-6.97
-4.79
-0.88
3.48
6.37
6.12
2.67
-2.03
-5.43
-5.46
-2.25
2.46
6.28
8.17
8.39
7.90
6.87
4.26
-1.41
-10.44
-20.71
-28.47
-30.09
-23.85
-11.67
2.43
13.65
19.36
19.26
15.48
10.93
7.45
5.18
3.10
0.14
-4.08
-8.40
-10.98
-10.31
-6.36
-0.78
4.02
5.95
5.11
3.35
3.71
8.07
16.38
25.97
33.29
35.38
31.52
23.68
15.42
9.87
8.30
9.70
11.68
11.83
9.79
6.89
5.32
6.72
10.51
14.55
16.12
13.76
7.73
-0.18
-7.96
-14.52
-19.65
-23.57
-26.20
-27.35
-26.51
-23.79
-19.52
-14.28
-8.79
-3.67
0.17
1.27
-1.76
-9.55
-21.05
-33.34
-42.84
-46.75
-44.08
-36.45
-26.40
-16.32
-7.19
1.40
9.81
18.08
25.24
29.94
30.93
28.26
22.84
16.04
9.47
4.40
1.63
1.00
2.20
3.98
5.31
5.50
4.28
2.43
0.71
-0.13
0.04
1.32
2.99
4.15
3.47
-0.33
-7.40
-16.38
-24.46
-29.33
-30.14
-28.17
-25.92
-25.31
-26.54
-27.70
-26.38
-20.43
-9.75
3.78
16.95
26.40
29.94
27.04
19.49
10.21
3.00
0.59
4.00
12.10
22.52
32.84
41.54
48.14
51.92
51.75
46.04
34.09
17.22
-1.35
-17.19
-27.10
-29.92
-26.99
-20.65
-13.09
-5.77
0.42
4.19
4.24
-0.42
-8.66
-16.99
-20.92
-17.47
-7.26
5.61
14.82
15.72
7.15
-7.53
-22.52
-32.21
-33.29
-25.49
-10.88
6.77
23.57
35.90
41.13
38.13
27.76
13.43
-0.17
-7.99
-7.27
1.57
14.69
26.49
32.55
31.19
24.43
15.68
7.99
2.30
-2.12
-6.36
-10.83
-14.46
-16.61
-17.60
-19.67
-24.83
-33.13
-41.75
-45.76
-41.33
-27.60
-8.23
10.92
23.91
27.84
23.31
13.76
3.51
-4.46
-8.77
-10.05
-9.50
-8.33
-7.36
-6.94
-7.61
-9.74
-14.15
-20.64
-28.18
-34.14
-35.39
-29.98
-18.00
-2.77
10.79
17.76
16.31
8.00
-2.67
-10.16
-10.99
-4.99
4.44
13.17
17.85
18.20
16.25
14.81
15.52
17.45
18.82
17.90
15.15
12.29
11.05
11.64
12.46
11.92
9.48
7.15
7.40
11.83
19.06
25.05
25.66
18.99
7.01
-6.16
-15.83
-19.76
-18.61
-14.82
-10.88
-7.59
-4.46
-0.14
5.52
11.38
14.74
13.05
5.46
-6.72
-19.98
-30.88
-36.80
-37.60
-34.95
-31.46
-28.76
-26.51
-23.17
-16.70
-6.65
5.94
18.68
29.38
36.50
39.16
37.09
29.96
18.38
3.77
-10.71
-21.29
-24.91
-20.57
-9.99
3.49
15.51
23.30
25.70
23.82
20.05
16.95
16.04
16.63
16.17
10.86
-1.45
-19.77
-38.91
-51.77
-53.01
-42.24
-24.79
-8.39
0.46
0.42
-5.15
-10.44
-10.88
-5.49
3.57
12.17
17.26
17.28
12.56
4.45
-5.15
-13.51
-17.85
-15.43
-5.68
9.69
26.32
39.18
44.27
40.19
29.31
16.21
6.46
4.06
9.88
21.22
33.08
40.50
40.33
32.86
20.78
8.05
-2.75
-11.15
-18.18
-25.15
-32.03
-37.95
-41.22
-41.06
-37.47
-31.27
-23.53
-15.16
-7.17
-0.11
4.88
7.34
7.20
5.53
3.95
3.53
4.51
5.67
5.45
2.82
-1.91
-7.79
-13.82
-19.54
-24.87
-29.51
-33.20
-35.17
-34.90
-32.09
-26.85
-19.80
-12.08
-5.28
-0.42
1.81
2.12
1.96
3.06
6.62
12.14
18.15
21.96
21.93
17.80
11.24
4.80
0.74
0.43
3.90
10.71
19.62
29.18
37.11
41.25
40.10
33.59
24.14
15.12
10.10
9.92
12.54
13.65
9.78
0.70
-10.18
-17.07
-16.04
-6.81
6.74
18.95
25.33
24.13
16.69
5.21
-7.62
-20.07
-30.79
-39.04
-44.33
-46.42
-45.53
-41.51
-34.27
-23.59
-10.88
1.27
9.89
13.18
12.11
9.46
9.02
12.66
20.00
28.05
33.56
34.90
32.60
29.21
27.12
27.79
30.23
32.42
31.97
27.56
19.34
8.11
-4.55
-17.57
-29.54
-39.26
-44.93
-44.95
-38.78
-27.58
-14.82
-4.43
0.34
-1.27
-7.86
-16.26
-22.67
-24.26
-19.45
-9.28
3.83
15.91
23.30
23.88
18.00
8.35
-1.72
-8.79
-11.63
-10.56
-7.16
-3.24
0.10
2.51
4.09
4.45
3.31
0.08
-4.62
-9.18
-11.62
-10.08
-4.19
4.69
13.45
19.25
20.34
17.08
11.48
5.69
1.26
-2.17
-5.37
-8.81
-11.60
-12.13
-9.33
-3.72
1.74
3.75
-0.09
-8.99
-18.96
-24.70
-22.50
-12.31
2.02
14.62
20.71
18.16
8.65
-4.08
-16.05
-24.44
-28.25
-27.40
-22.79
-15.47
-7.43
-0.74
2.86
2.90
1.06
-0.07
1.86
6.90
13.05
17.26
17.37
13.83
8.89
5.61
5.17
6.73
7.69
6.24
2.68
-1.01
-2.36
-0.55
2.93
4.90
3.34
-1.75
-7.47
-9.49
-5.16
5.46
18.63
29.36
32.82
27.17
13.94
-2.79
-17.78
-27.03
-28.66
-24.13
-16.65
-10.18
-7.22
-7.64
-9.02
-7.90
-2.11
8.21
19.67
27.77
29.29
23.62
13.31
2.06
-6.86
-12.48
-15.35
-17.20
-19.05
-20.13
-18.88
-13.47
-4.17
6.59
14.32
15.01
7.15
-6.89
-21.44
-30.26
-29.06
-18.03
-1.10
15.07
24.63
25.01
17.62
6.63
-3.45
-9.55
-11.60
-11.25
-10.54
-10.51
-10.28
-8.26
-2.67
6.44
17.34
26.83
31.88
31.25
25.77
18.49
12.46
9.98
10.78
13.14
14.24
12.29
7.34
0.93
-4.66
-8.23
-9.61
-10.14
-10.72
-11.08
-9.55
-4.51
4.13
14.46
22.58
25.38
21.68
13.45
4.55
-1.43
-2.59
0.27
4.78
8.02
8.36
5.35
-0.28
-7.04
-13.48
-17.89
-19.36
-17.34
-12.87
-7.79
-4.46
-4.57
-7.78
-12.19
-14.68
-12.96
-6.53
2.33
9.98
13.13
10.71
5.21
1.19
2.81
10.31
19.74
24.36
18.97
3.19
-17.99
-36.14
-44.62
-40.88
-28.08
-12.49
-0.20
5.51
5.31
2.06
-0.48
-0.17
3.69
10.04
16.81
22.02
24.22
23.23
19.55
14.27
8.32
2.42
-2.57
-5.98
-7.09
-5.48
-1.04
5.28
11.95
16.56
16.92
11.56
0.10
-15.38
-31.49
-44.08
-50.67
-51.04
-47.79
-44.75
-44.73
-48.44
-53.49
-56.65
-55.12
-47.90
-35.53
-19.55
-1.81
16.07
32.35
45.46
53.63
55.97
52.75
45.46
36.13
26.68
18.69
13.18
11.05
12.46
16.67
21.96
25.86
26.70
24.12
19.75
15.39
12.48
10.52
8.39
5.29
1.75
-0.30
1.05
6.54
14.37
21.51
24.96
23.33
17.17
8.15
-1.31
-9.71
-15.97
-19.56
-20.10
-17.59
-12.53
-6.05
0.14
4.34
5.73
4.73
2.76
1.50
2.37
5.39
9.74
13.54
15.20
13.41
8.44
1.63
-4.53
-7.68
-7.10
-4.26
-2.65
-5.80
-15.36
-29.49
-43.78
-53.34
-55.09
-49.58
-39.51
-28.08
-17.08
-6.61
3.35
12.10
17.85
18.96
15.16
8.42
1.62
-3.24
-5.57
-6.13
-5.57
-3.76
0.37
6.96
14.95
21.71
24.78
23.63
19.89
16.27
14.47
14.18
13.07
9.27
2.27
-6.21
-13.19
-16.67
-16.14
-12.85
-8.68
-5.13
-2.95
-2.19
-2.44
-3.07
-3.61
-3.44
-1.99
0.84
4.50
7.88
9.64
8.49
4.54
-1.14
-6.29
-9.04
-8.68
-6.17
-3.84
-3.48
-5.20
-6.81
-5.72
-0.08
9.52
20.16
28.66
32.66
31.67
26.47
18.17
8.12
-2.16
-10.65
-15.55
-15.95
-12.92
-8.84
-6.21
-5.94
-7.18
-7.89
-6.23
-2.46
1.92
4.96
5.69
4.50
2.45
0.56
-1.52
-4.40
-8.72
-13.79
-18.04
-19.86
-18.40
-14.22
-8.71
-3.90
-0.98
-0.24
-1.10
-2.25
-2.36
-0.16
4.37
10.59
16.63
20.74
21.39
18.81
14.12
9.03
5.21
2.84
1.49
0.09
-1.74
-4.01
-6.05
-7.10
-6.80
-4.98
-2.24
0.71
2.96
4.05
3.71
2.16
-0.10
-3.11
-6.77
-10.98
-15.23
-19.11
-21.96
-23.20
-22.71
-20.15
-15.86
-10.22
-4.24
1.20
5.17
7.17
7.61
7.13
7.23
8.62
12.01
16.63
21.25
24.16
24.13
21.02
15.71
10.35
6.94
6.95
10.22
15.13
19.14
19.36
13.96
2.38
-13.40
-29.85
-42.10
-46.16
-40.72
-27.96
-12.76
-0.23
6.54
7.91
6.09
3.38
0.67
-2.78
-7.32
-12.26
-15.15
-14.05
-8.57
-0.85
5.82
9.46
10.13
9.94
10.92
13.65
16.40
17.18
14.87
10.28
5.69
2.68
1.55
0.96
-0.41
-3.22
-6.35
-8.05
-7.03
-3.07
1.94
5.79
6.77
4.77
1.71
0.40
2.72
8.36
14.93
18.67
17.18
10.23
0.13
-9.89
-17.48
-22.00
-24.40
-25.18
-24.28
-20.72
-14.28
-6.57
-0.54
1.07
-2.35
-9.14
-15.55
-18.30
-15.70
-8.40
0.73
8.49
12.19
10.99
6.10
0.44
-2.84
-1.49
4.22
11.74
17.84
19.76
17.08
11.06
4.45
-0.72
-3.58
-3.94
-2.07
2.33
9.18
17.82
26.53
32.92
35.18
32.71
26.88
19.35
11.64
4.31
-2.92
-9.85
-15.40
-17.79
-15.58
-8.69
0.63
9.29
14.21
14.37
10.65
5.19
0.39
-2.63
-3.80
-4.34
-5.22
-7.33
-10.80
-14.66
-17.36
-16.72
-11.51
-1.80
9.90
19.93
24.76
22.53
14.28
3.13
-7.10
-13.54
-15.46
-14.18
-12.15
-11.53
-13.29
-16.74
-20.62
-23.38
-24.55
-24.14
-23.08
-22.28
-22.33
-23.54
-25.10
-26.07
-24.73
-20.26
-12.62
-3.11
6.05
12.95
16.48
17.52
17.42
17.77
18.83
19.76
19.30
16.93
13.66
11.05
10.74
12.91
16.44
19.43
20.17
18.33
14.40
9.82
5.62
2.45
-0.02
-2.12
-3.90
-5.26
-5.41
-4.32
-1.88
1.05
3.99
6.74
9.68
13.36
17.28
20.17
19.44
13.32
1.51
-13.58
-27.76
-36.67
-37.58
-31.13
-20.07
-8.87
-0.91
2.02
0.15
-5.09
-11.97
-18.65
-23.69
-25.44
-22.94
-15.98
-5.58
6.03
16.41
23.19
25.40
22.90
16.76
8.56
0.17
-6.58
-10.18
-9.59
-5.64
-0.34
3.36
3.84
1.31
-1.65
-1.74
2.63
10.50
17.99
21.15
17.73
9.29
-0.06
-5.57
-4.27
3.32
14.55
26.12
35.96
43.39
47.89
48.49
43.36
31.49
13.22
-8.55
-29.80
-46.37
-55.70
-57.66
-53.54
-45.65
-36.18
-27.33
-20.42
-16.44
-15.48
-16.62
-18.38
-18.77
-16.90
-12.63
-6.90
-0.65
5.30
10.32
14.08
15.82
15.22
12.22
7.61
2.74
-0.82
-1.88
-0.41
3.04
7.16
11.07
14.00
15.82
16.42
15.69
13.57
10.30
6.83
4.06
3.25
4.65
7.90
11.55
13.63
12.59
7.54
-0.51
-9.47
-16.33
-18.85
-16.34
-9.79
-2.06
3.86
5.90
4.30
0.90
-1.70
-1.87
0.18
2.95
4.25
3.16
0.05
-3.36
-5.83
-6.64
-6.09
-4.85
-2.89
-0.16
3.58
7.43
9.80
9.09
5.34
0.46
-3.32
-4.35
-3.27
-1.95
-2.57
-5.73
-10.14
-13.60
-14.42
-12.81
-9.84
-6.91
-4.36
-1.45
2.66
8.42
14.94
20.69
24.05
24.36
21.58
16.68
11.33
6.90
4.51
3.96
4.32
4.10
2.25
-1.20
-4.60
-5.51
-2.40
4.59
12.36
16.44
12.81
0.41
-17.84
-35.83
-46.93
-47.42
-37.50
-21.64
-5.84
5.06
9.09
7.15
1.57
-5.03
-11.10
-15.38
-17.20
-15.56
-9.83
-0.58
10.47
19.92
24.70
22.71
14.40
1.99
-10.71
-20.06
-23.83
-21.32
-13.66
-2.82
8.47
17.77
23.42
25.06
23.68
20.64
17.46
14.48
11.47
7.47
2.40
-3.08
-7.74
-9.98
-9.73
-7.55
-5.27
-3.70
-3.01
-2.30
-0.52
2.30
5.37
6.71
5.26
0.65
-5.87
-12.22
-16.28
-16.87
-14.17
-8.73
-1.61
6.92
16.01
24.02
28.68
27.92
21.54
11.37
0.95
-7.11
-11.75
-14.63
-18.38
-24.45
-32.35
-38.97
-41.23
-37.10
-27.70
-16.13
-6.21
-0.58
0.75
-0.44
-1.57
-1.31
0.06
0.69
-1.25
-6.11
-11.99
-15.26
-12.80
-2.97
12.49
29.72
44.09
52.05
52.73
47.55
39.83
32.51
27.75
25.57
24.80
23.79
21.20
17.08
12.05
7.33
3.47
0.33
-3.15
-8.20
-15.22
-23.76
-32.35
-39.29
-42.97
-42.53
-37.94
-30.01
-20.17
-9.84
-0.64
6.68
11.28
12.93
11.65
8.18
4.21
1.29
0.79
2.29
4.36
4.71
1.77
-4.13
-10.77
-14.67
-13.52
-7.17
1.87
10.29
15.41
16.64
15.48
13.62
12.22
10.86
9.25
7.61
7.31
9.38
13.32
16.79
16.27
9.87
-1.47
-13.59
-21.72
-23.11
-18.05
-9.72
-1.53
4.03
6.52
6.48
4.66
1.35
-3.29
-8.58
-13.58
-17.05
-18.59
-18.37
-16.97
-14.61
-11.06
-6.64
-1.80
1.83
3.31
2.37
0.29
-1.11
-0.67
1.69
4.79
7.46
8.78
9.03
9.27
10.22
11.96
13.28
12.53
8.68
2.09
-5.87
-12.94
-17.11
-17.22
-13.57
-7.90
-2.34
1.11
1.99
0.86
-0.74
-1.06
0.70
4.67
9.58
13.63
14.52
11.21
4.00
-5.35
-14.14
-20.18
-21.85
-19.08
-12.53
-3.51
6.17
14.38
19.39
20.28
17.71
14.13
12.25
14.06
19.03
24.99
29.03
29.48
27.23
24.28
22.86
23.36
25.07
26.36
26.09
24.12
20.94
17.06
12.02
5.00
-5.01
-18.14
-33.29
-48.27
-60.23
-67.47
-69.36
-67.11
-62.25
-56.32
-49.38
-40.98
-31.15
-20.60
-11.41
-5.07
-2.24
-1.38
-0.09
3.02
7.88
12.32
14.05
11.75
6.54
0.68
-3.28
-3.74
-0.78
4.58
11.04
17.32
22.01
23.98
22.40
17.49
11.05
5.41
2.85
3.69
6.59
8.92
9.12
7.44
5.51
5.44
7.53
10.55
11.92
10.07
5.03
-1.45
-6.70
-8.81
-7.31
-3.58
0.47
2.65
1.29
-4.10
-12.83
-22.90
-31.35
-34.88
-31.74
-21.93
-7.42
8.51
22.64
32.24
35.89
33.19
25.54
15.22
5.37
-1.10
-2.50
1.06
7.57
14.23
18.07
17.61
12.75
4.90
-3.99
-12.27
-18.50
-22.29
-23.09
-20.52
-14.45
-5.59
4.43
13.04
17.53
17.00
12.35
6.67
3.38
4.55
9.81
16.16
20.09
18.88
12.67
3.74
-4.51
-9.22
-9.08
-4.48
2.28
8.55
11.68
10.41
4.78
-3.40
-11.73
-18.17
-21.58
-22.49
-22.10
-21.45
-20.86
-19.78
-17.39
-13.03
-7.49
-2.09
1.19
1.62
-0.53
-3.61
-5.54
-5.35
-3.04
-0.32
0.89
-0.83
-5.29
-10.62
-14.33
-14.03
-9.22
-0.99
7.95
15.02
18.09
16.69
11.63
4.48
-2.54
-7.86
-10.48
-10.34
-7.74
-3.08
2.76
9.01
14.30
17.27
16.45
11.68
3.82
-4.60
-10.30
-10.56
-4.01
7.95
22.11
34.36
41.20
40.79
33.56
22.08
9.94
0.96
-2.49
0.01
5.87
11.07
11.81
6.21
-4.20
-15.70
-23.60
-25.46
-21.69
-15.02
-8.79
-4.78
-2.68
-1.16
0.37
1.62
1.45
-0.33
-2.58
-3.12
-0.34
5.30
11.00
13.11
9.89
2.22
-6.11
-11.26
-11.58
-8.70
-5.95
-5.73
-7.88
-9.50
-7.61
-1.27
7.40
14.04
15.46
11.04
3.49
-3.33
-6.79
-6.91
-5.71
-5.40
-6.90
-9.21
-11.03
-11.63
-11.33
-10.75
-10.15
-9.43
-8.32
-7.50
-7.72
-9.70
-12.55
-14.25
-12.78
-7.61
-0.28
6.12
8.51
6.10
0.31
-5.91
-9.66
-9.91
-7.34
-4.20
-2.20
-2.31
-3.89
-5.40
-4.99
-1.42
4.74
11.87
17.05
18.04
14.08
7.14
1.23
0.32
6.58
18.18
30.47
37.43
35.35
24.59
9.28
-4.49
-12.16
-12.62
-8.77
-4.70
-3.50
-5.47
-8.40
-9.64
-7.41
-2.50
3.36
7.74
9.23
7.60
3.79
-0.81
-5.05
-7.84
-9.35
-10.02
-10.98
-12.82
-15.40
-17.87
-18.63
-16.79
-12.13
-5.86
0.66
6.22
10.26
12.93
14.38
14.93
14.49
13.31
11.51
9.52
7.91
6.79
6.66
7.53
9.56
11.95
13.30
11.95
7.34
0.31
-6.87
-11.12
-11.13
-7.29
-2.63
-0.48
-3.04
-10.05
-18.42
-24.46
-25.12
-20.08
-11.13
-1.59
5.57
9.28
10.08
10.00
10.34
11.11
10.30
5.67
-3.47
-15.44
-26.16
-31.90
-30.68
-23.72
-13.92
-4.33
3.66
10.10
15.17
18.36
17.57
11.45
0.34
-12.75
-23.69
-29.26
-28.19
-21.73
-11.84
-0.86
9.63
17.86
22.05
21.40
16.52
10.45
6.58
7.13
11.04
14.92
14.99
9.85
2.09
-3.58
-2.67
5.57
17.80
27.70
29.64
21.51
5.30
-13.77
-30.31
-40.82
-44.50
-42.39
-35.86
-25.60
-11.25
6.66
25.99
41.90
49.28
44.74
29.62
9.96
-6.21
-12.28
-7.05
5.51
18.06
24.42
22.26
13.78
3.97
-3.46
-7.35
-9.50
-11.94
-15.05
-16.74
-14.08
-5.84
6.35
17.86
24.13
22.65
14.38
2.67
-8.77
-17.34
-22.46
-23.84
-21.59
-15.25
-5.12
7.58
20.44
30.55
36.37
37.49
34.92
29.90
23.67
17.22
11.52
7.92
6.92
8.49
11.06
12.65
11.59
7.73
2.13
-3.77
-8.65
-12.27
-14.62
-16.38
-17.75
-19.04
-20.21
-21.27
-22.42
-23.56
-24.85
-25.79
-26.06
-25.09
-22.49
-18.59
-13.84
-9.58
-6.90
-6.78
-9.21
-13.46
-18.17
-21.53
-22.18
-18.99
-11.91
-1.13
11.88
25.00
35.47
40.71
39.48
32.08
21.04
9.13
-0.71
-7.18
-10.06
-10.42
-9.52
-7.99
-6.48
-4.90
-3.73
-3.45
-4.89
-8.76
-14.58
-20.95
-25.02
-24.35
-17.34
-5.19
8.61
19.64
24.70
23.94
19.83
15.91
14.08
13.99
13.62
11.17
6.81
1.82
-1.90
-3.99
-5.40
-8.02
-12.47
-17.79
-21.85
-21.86
-16.63
-6.46
6.12
17.68
24.91
25.72
20.60
11.98
3.90
-0.76
-0.72
2.74
6.97
9.63
9.47
6.84
2.18
-3.67
-10.45
-17.75
-24.65
-29.98
-32.11
-30.20
-23.99
-14.35
-2.62
9.01
18.62
24.58
25.62
21.74
13.65
3.10
-7.91
-17.48
-24.39
-28.25
-29.06
-27.48
-23.47
-17.19
-8.68
1.51
11.63
19.02
21.13
17.39
9.07
-0.17
-7.16
-10.19
-10.02
-8.64
-7.60
-6.99
-5.02
-0.32
7.52
16.50
23.55
26.22
23.80
17.99
11.65
7.64
7.09
9.66
13.69
17.74
21.36
24.68
28.16
31.61
33.66
32.38
26.53
16.65
4.99
-4.82
-10.32
-10.74
-7.71
-3.98
-2.58
-4.68
-9.94
-16.80
-22.99
-27.04
-28.26
-26.75
-23.54
-19.64
-16.23
-13.89
-13.01
-13.28
-14.22
-15.14
-15.19
-13.64
-9.74
-3.39
4.84
13.41
20.63
25.18
26.86
26.65
25.78
25.50
25.71
25.41
23.20
18.51
11.76
4.62
-1.04
-4.55
-5.71
-5.34
-4.20
-2.94
-2.25
-2.59
-4.60
-8.20
-13.17
-18.42
-22.69
-24.49
-22.51
-16.61
-7.58
1.98
9.36
12.04
9.83
4.39
-1.13
-4.18
-4.51
-4.06
-5.88
-11.48
-19.64
-26.39
-27.70
-21.73
-9.91
3.01
12.22
14.14
8.46
-2.52
-14.55
-23.52
-26.88
-23.69
-15.36
-4.05
7.43
16.89
22.99
25.21
23.78
19.39
13.52
7.59
3.56
2.36
3.79
6.46
8.23
7.65
4.51
0.42
-2.75
-3.19
-0.44
4.78
11.59
18.74
25.50
30.99
34.06
33.33
28.06
18.43
5.92
-6.89
-17.67
-24.48
-26.61
-24.65
-19.90
-13.72
-7.54
-2.65
0.21
0.27
-2.77
-8.29
-14.83
-20.28
-22.81
-21.42
-17.09
-11.48
-6.84
-4.16
-3.08
-2.36
-0.50
3.05
7.89
12.87
16.94
19.49
20.39
19.89
18.15
15.44
12.04
8.65
6.15
5.08
5.21
5.70
5.48
3.52
-0.02
-4.22
-7.62
-9.06
-7.90
-4.72
-0.75
2.93
5.04
5.35
3.80
0.96
-2.68
-6.59
-10.15
-12.66
-13.09
-10.80
-5.56
1.41
8.30
13.17
14.92
13.65
10.36
6.04
0.89
-5.20
-12.37
-19.82
-25.42
-27.14
-23.82
-16.81
-8.75
-2.92
-1.22
-3.48
-8.05
-12.39
-14.67
-13.90
-10.54
-5.50
-0.52
2.89
4.06
3.17
1.84
1.81
4.38
8.94
13.75
16.49
15.85
12.42
8.08
5.04
3.94
3.63
1.70
-4.17
-13.81
-24.86
-33.19
-35.89
-31.90
-22.96
-12.46
-3.15
3.35
7.42
10.09
12.59
14.89
16.55
16.67
14.67
11.01
6.28
1.63
-2.14
-4.19
-4.43
-3.20
-1.26
0.35
1.37
1.76
2.27
3.30
5.05
7.33
9.35
10.55
10.30
8.71
5.87
2.67
0.37
0.07
2.57
7.18
12.65
16.79
18.43
16.81
12.48
6.42
-0.17
-5.78
-9.17
-9.26
-6.00
-0.29
5.65
9.53
9.89
6.71
1.72
-3.38
-7.00
-8.99
-9.75
-10.00
-10.28
-10.68
-11.64
-13.23
-15.31
-16.62
-15.58
-10.94
-2.86
6.89
15.57
20.74
22.07
20.58
18.45
17.13
16.87
16.92
16.60
16.20
16.18
17.14
18.52
18.96
17.01
12.05
5.08
-2.01
-6.86
-8.41
-6.80
-3.88
-2.28
-4.31
-11.18
-22.07
-34.75
-45.46
-50.99
-49.44
-41.55
-29.83
-17.98
-9.57
-6.28
-8.31
-14.03
-20.92
-26.53
-29.05
-28.09
-24.24
-19.22
-14.41
-10.62
-7.91
-5.79
-3.98
-2.59
-2.00
-1.79
-0.90
2.67
10.41
22.87
39.16
56.80
72.91
84.00
87.35
81.10
65.41
42.46
16.87
-5.46
-19.62
-23.11
-17.28
-6.28
4.73
11.23
11.04
3.79
-8.67
-23.51
-36.84
-45.36
-47.22
-42.81
-34.76
-26.48
-20.46
-16.86
-14.22
-9.96
-2.58
7.70
19.16
29.26
36.10
38.76
37.44
32.93
26.30
18.25
9.61
1.53
-4.95
-8.43
-7.88
-2.97
5.13
13.71
19.49
19.61
13.69
3.49
-6.90
-13.79
-15.06
-11.08
-4.19
2.55
6.85
7.96
5.51
-0.45
-9.84
-21.80
-33.98
-42.59
-44.06
-37.12
-23.73
-8.60
3.48
9.43
9.01
4.87
-0.03
-3.63
-5.73
-6.89
-7.96
-8.57
-7.52
-3.90
2.52
10.12
16.85
20.91
21.73
20.27
18.28
16.92
15.79
13.68
9.01
1.98
-5.26
-9.44
-8.16
-1.43
8.43
17.18
21.64
20.23
13.96
5.20
-3.70
-11.09
-16.47
-20.01
-22.26
-23.21
-22.94
-21.32
-18.60
-15.62
-13.04
-11.62
-11.02
-10.08
-7.03
-0.90
7.65
16.33
21.70
21.62
15.48
5.16
-6.32
-15.53
-20.36
-20.10
-14.80
-5.72
5.85
17.67
27.40
32.57
32.09
26.54
18.12
9.63
2.98
-1.00
-2.62
-2.39
-0.64
2.00
4.69
5.59
3.21
-3.23
-12.19
-20.75
-25.35
-23.53
-15.44
-3.58
8.09
16.16
18.79
16.63
11.75
6.46
2.59
0.71
1.24
4.38
10.40
18.76
28.05
35.77
38.98
35.81
26.21
12.39
-2.25
-14.01
-20.37
-20.72
-15.88
-7.91
0.96
8.15
11.85
10.63
4.53
-5.18
-15.99
-24.83
-29.20
-27.90
-21.45
-11.84
-1.82
6.42
11.53
13.17
11.95
8.70
4.76
1.15
-1.24
-2.07
-1.52
-0.11
1.33
2.21
1.71
-0.89
-6.02
-13.55
-22.31
-30.24
-34.73
-34.45
-29.35
-21.76
-14.42
-9.83
-8.50
-9.02
-8.88
-6.18
-0.68
6.08
11.49
13.80
12.44
8.79
4.98
2.42
1.71
2.01
2.71
3.19
3.60
3.90
3.51
1.47
-2.96
-9.02
-14.53
-16.76
-14.36
-8.40
-1.98
1.02
-1.34
-8.55
-17.41
-24.32
-26.40
-23.07
-15.21
-4.95
5.23
12.80
15.58
12.48
4.04
-6.95
-16.30
-20.19
-16.35
-6.02
7.40
19.25
26.49
28.27
26.25
23.35
21.74
22.17
23.58
24.76
24.71
23.46
21.65
20.10
19.44
19.35
19.41
18.85
17.04
13.53
8.09
0.97
-7.17
-14.78
-20.30
-22.36
-20.47
-15.84
-10.73
-8.02
-9.20
-14.08
-20.03
-24.01
-23.49
-18.50
-11.46
-5.80
-3.66
-4.55
-5.86
-4.22
1.56
9.86
16.62
17.74
12.15
1.86
-8.60
-15.53
-17.54
-16.21
-14.28
-13.54
-13.74
-12.44
-7.72
0.61
10.27
17.74
20.10
16.40
8.16
-2.15
-11.53
-18.44
-21.73
-21.29
-17.41
-11.10
-4.22
1.16
3.17
1.59
-2.62
-7.10
-9.53
-8.91
-5.54
-0.86
3.98
8.07
11.66
14.96
17.97
19.99
19.55
15.68
8.12
-1.77
-11.64
-18.44
-19.96
-15.03
-4.30
9.91
25.18
39.07
50.31
57.98
61.25
58.99
49.91
33.96
12.87
-9.14
-27.35
-37.99
-40.10
-35.94
-29.53
-24.56
-22.30
-21.80
-20.57
-17.08
-11.33
-4.50
1.53
5.77
7.58
7.37
5.37
2.36
-1.03
-3.36
-3.05
0.42
6.48
12.76
16.62
16.03
11.32
4.68
-1.10
-4.06
-4.54
-4.15
-5.26
-8.79
-13.92
-18.25
-19.43
-16.78
-11.71
-7.23
-5.49
-7.09
-10.25
-12.01
-10.18
-4.34
3.73
11.81
17.66
20.68
21.11
19.68
16.90
12.41
6.27
-0.96
-7.27
-10.40
-8.68
-2.34
6.16
13.78
17.74
17.60
14.28
10.06
6.35
3.83
2.36
1.41
1.32
2.50
5.37
9.04
11.94
12.12
8.98
3.26
-3.34
-8.88
-12.47
-14.21
-14.86
-14.94
-14.53
-13.63
-12.33
-11.22
-10.81
-11.90
-14.72
-18.99
-23.79
-27.48
-28.37
-25.07
-17.77
-7.69
2.46
9.71
12.17
9.66
4.21
-0.87
-2.16
1.76
9.95
19.10
25.49
26.73
23.04
16.64
10.53
6.94
5.81
5.73
5.18
3.93
3.39
5.22
10.05
16.48
21.87
23.71
21.26
15.59
8.87
3.10
-1.13
-3.56
-4.03
-2.42
1.14
5.64
8.80
7.89
1.63
-9.24
-21.50
-31.02
-34.98
-33.49
-29.26
-25.74
-24.95
-25.80
-25.53
-21.27
-12.53
-1.62
7.38
10.85
7.71
0.15
-7.61
-11.71
-10.70
-6.33
-2.31
-1.62
-4.76
-9.33
-11.67
-9.15
-1.95
7.03
13.99
16.21
13.81
8.88
4.34
1.82
1.36
1.81
1.54
0.18
-1.68
-2.33
-0.47
4.44
11.26
18.11
22.73
23.61
20.84
15.41
8.83
2.25
-3.75
-8.98
-13.52
-17.20
-19.88
-21.18
-21.12
-19.82
-17.53
-14.93
-12.82
-11.89
-11.82
-11.87
-10.40
-6.56
-0.39
6.77
12.87
16.96
19.30
21.62
25.40
30.76
36.03
38.59
36.51
29.43
19.26
8.58
-0.27
-6.48
-10.57
-13.51
-15.78
-16.40
-14.48
-9.71
-3.73
0.56
0.78
-3.88
-11.97
-20.85
-27.42
-30.06
-28.31
-23.02
-15.38
-7.08
-0.04
4.09
4.03
0.33
-4.86
-8.47
-7.85
-2.68
4.96
11.68
14.93
14.11
10.90
7.83
7.06
9.53
14.62
21.33
28.21
34.03
36.87
34.45
24.96
8.44
-11.73
-29.63
-38.24
-33.03
-14.14
12.81
39.13
56.24
58.96
47.48
26.11
1.99
-18.23
-29.84
-31.57
-25.12
-14.49
-4.38
1.82
2.72
-0.38
-4.76
-8.07
-9.56
-10.61
-13.41
-19.70
-28.86
-38.65
-45.47
-46.58
-41.09
-30.13
-16.38
-2.66
9.04
18.61
26.68
34.58
42.58
49.56
53.80
53.61
48.91
40.62
30.94
21.17
11.89
2.55
-7.57
-17.85
-26.89
-32.46
-33.32
-29.61
-22.81
-15.05
-7.86
-2.15
1.86
3.55
2.61
-1.35
-7.65
-14.84
-20.71
-23.67
-23.55
-21.16
-18.22
-15.31
-12.40
-8.72
-3.83
1.55
6.42
9.67
11.45
12.42
13.54
14.79
15.48
14.80
12.09
8.07
3.77
0.27
-1.80
-2.79
-3.14
-3.13
-2.69
-1.94
-0.95
-0.54
-1.10
-2.70
-4.66
-5.85
-5.42
-2.70
1.51
6.13
9.33
9.85
7.83
4.68
2.84
4.41
10.42
19.73
30.09
38.74
44.15
46.54
47.01
46.68
45.16
40.70
31.17
16.00
-2.86
-21.63
-36.27
-45.13
-49.07
-51.18
-54.12
-58.52
-62.33
-62.42
-57.18
-47.25
-36.22
-27.65
-23.76
-24.06
-26.13
-27.04
-25.08
-20.56
-14.50
-8.12
-1.61
5.23
12.56
19.39
23.26
21.55
12.67
-1.68
-17.04
-27.01
-26.45
-13.57
9.00
34.65
56.26
68.36
69.65
62.15
50.11
37.58
27.37
20.94
18.44
19.98
24.75
31.28
36.89
38.61
34.23
23.37
7.97
-8.62
-22.31
-30.58
-32.34
-28.48
-21.23
-13.55
-8.40
-7.41
-10.60
-15.73
-20.00
-20.98
-17.97
-12.60
-7.19
-3.96
-3.36
-4.83
-6.72
-8.06
-8.25
-7.37
-6.43
-6.04
-7.06
-9.64
-13.43
-17.05
-18.97
-17.83
-13.19
-6.11
2.15
9.81
15.88
19.35
19.52
16.02
9.36
1.87
-3.50
-3.94
0.87
8.58
15.35
17.80
15.32
9.88
5.16
3.46
4.73
6.10
4.26
-1.70
-10.09
-16.95
-19.39
-16.95
-12.31
-9.07
-9.45
-13.01
-16.74
-18.12
-16.24
-13.20
-11.73
-13.32
-16.83
-18.94
-16.79
-9.66
-0.18
7.85
10.99
8.46
2.53
-3.12
-4.81
-1.21
6.77
15.88
22.95
26.00
25.38
23.56
23.08
25.28
28.35
28.59
22.20
8.60
-8.37
-21.90
-25.29
-16.49
1.21
20.15
32.71
34.39
25.59
10.09
-7.37
-22.77
-34.17
-40.11
-39.95
-33.69
-22.63
-10.09
-0.26
3.07
-0.86
-10.22
-20.59
-27.76
-28.70
-22.48
-10.43
5.06
20.49
32.71
38.73
37.75
31.16
22.75
17.25
17.62
23.63
30.97
34.12
28.80
14.72
-4.38
-22.78
-35.41
-40.57
-39.19
-33.90
-27.14
-20.27
-13.40
-6.56
-0.69
3.24
4.28
3.15
1.40
1.02
3.19
7.57
12.50
15.72
15.95
12.87
7.86
2.46
-1.76
-4.10
-4.99
-5.00
-5.10
-5.50
-6.18
-6.64
-6.42
-5.78
-5.31
-6.18
-9.02
-13.07
-15.96
-15.01
-8.58
2.74
15.64
25.73
29.09
24.75
14.78
3.73
-3.69
-4.38
1.67
11.32
20.21
24.50
22.94
17.11
10.51
6.33
5.30
5.71
3.93
-2.51
-13.69
-26.77
-37.37
-42.37
-40.88
-34.68
-26.24
-17.54
-8.95
0.05
9.52
18.56
25.26
28.42
27.65
24.24
19.71
15.18
10.42
5.04
-0.64
-5.21
-5.97
-1.11
9.22
22.07
32.60
36.39
31.08
18.31
2.27
-11.31
-18.38
-17.79
-11.80
-4.49
0.75
2.27
1.41
0.41
1.40
4.26
7.24
7.87
4.76
-1.32
-8.22
-13.02
-14.24
-11.91
-7.90
-4.38
-3.14
-5.02
-9.48
-15.70
-22.30
-28.33
-32.70
-34.32
-32.27
-26.14
-16.91
-6.31
2.69
8.14
9.15
6.70
2.84
-0.36
-1.40
-0.29
2.86
7.29
12.43
17.09
19.98
19.49
14.75
6.43
-3.61
-12.45
-17.92
-18.85
-15.62
-9.97
-3.73
1.52
5.22
7.12
7.78
7.55
6.81
5.94
5.16
5.00
5.56
7.08
9.08
11.04
11.88
11.03
8.94
6.40
4.95
5.30
7.29
9.26
9.48
6.72
1.17
-5.57
-11.68
-15.56
-17.06
-16.50
-14.59
-11.84
-8.39
-4.74
-1.21
1.57
3.38
4.08
3.54
1.52
-1.99
-6.11
-9.32
-9.03
-3.72
6.59
18.83
28.58
32.14
28.07
18.59
7.45
-1.31
-6.31
-8.57
-10.42
-14.00
-19.40
-24.98
-28.03
-27.00
-21.79
-14.56
-7.77
-3.00
-0.50
0.99
2.69
5.16
7.62
9.02
8.54
6.32
3.35
0.46
-2.04
-4.83
-8.27
-12.63
-16.66
-18.80
-17.87
-13.94
-8.65
-3.93
-1.39
-0.89
-1.11
-0.14
3.32
8.93
15.36
20.34
22.57
21.55
18.52
15.28
13.64
14.55
17.05
19.60
20.06
17.61
12.81
7.57
3.51
1.33
0.27
-1.40
-4.39
-8.56
-12.00
-13.25
-11.74
-8.33
-4.39
-0.72
2.49
5.94
9.21
11.05
9.92
5.33
-1.39
-7.70
-10.98
-10.67
-7.65
-4.12
-1.52
0.31
2.51
6.59
12.62
19.53
24.92
27.10
25.29
20.28
14.07
8.57
5.25
3.73
2.94
1.26
-2.40
-7.61
-12.78
-16.03
-17.09
-17.07
-18.52
-23.17
-30.92
-38.86
-43.05
-40.49
-30.50
-15.97
-0.95
10.44
16.43
17.82
16.80
15.51
14.11
11.23
4.26
-7.67
-22.70
-36.44
-43.58
-41.44
-30.99
-17.28
-6.07
-0.97
-1.55
-4.34
-5.32
-2.34
3.35
8.76
10.43
7.09
-0.67
-10.09
-17.73
-20.43
-16.10
-4.99
10.74
26.79
39.05
45.27
46.17
44.91
44.46
45.87
46.67
43.41
33.45
17.39
-0.63
-15.42
-22.74
-21.80
-15.01
-7.07
-2.05
-2.03
-6.41
-12.39
-17.01
-17.99
-15.60
-11.50
-8.52
-8.22
-10.30
-12.07
-10.12
-2.48
10.55
25.42
37.49
42.43
38.59
27.21
11.58
-4.22
-17.62
-26.84
-31.62
-31.79
-27.48
-19.42
-9.45
-0.33
5.59
6.87
4.33
0.14
-3.07
-3.61
-1.55
1.83
4.13
3.68
-0.39
-7.02
-14.07
-18.81
-19.48
-16.31
-10.98
-6.30
-3.87
-4.10
-5.72
-7.02
-7.16
-6.20
-5.42
-5.59
-7.19
-9.52
-11.48
-11.84
-9.60
-4.54
3.15
12.07
20.44
25.80
26.42
21.75
12.95
3.14
-4.52
-6.96
-3.18
6.00
17.85
28.87
35.84
36.62
31.31
20.97
8.03
-5.12
-16.07
-22.72
-23.89
-19.66
-12.19
-4.38
0.42
0.38
-4.26
-11.31
-17.87
-21.52
-20.77
-15.95
-8.08
0.95
9.39
15.27
16.62
12.74
4.27
-5.72
-13.56
-15.85
-12.05
-4.01
5.06
12.37
17.52
21.23
24.87
27.86
28.64
25.32
17.95
9.06
2.02
-0.83
-0.12
0.95
-1.69
-9.51
-20.47
-30.01
-33.43
-29.18
-19.36
-8.95
-2.49
-2.03
-6.05
-10.80
-12.61
-9.66
-3.26
3.63
7.74
7.68
4.52
1.19
0.78
4.59
12.40
21.65
29.65
34.11
34.27
31.10
26.41
21.58
16.63
10.73
2.34
-8.90
-21.94
-34.64
-44.50
-49.80
-49.55
-44.05
-34.38
-22.74
-11.47
-2.98
1.26
1.90
1.22
2.41
7.55
16.73
27.46
36.41
40.84
39.58
34.01
26.11
18.20
11.84
7.85
6.54
7.52
9.58
10.54
8.51
2.33
-6.95
-16.56
-22.84
-23.29
-18.10
-9.88
-2.46
1.40
0.62
-3.28
-7.65
-10.44
-10.90
-9.86
-8.04
-6.23
-3.94
-0.67
4.34
10.78
17.27
21.99
22.68
18.35
9.40
-2.16
-13.22
-20.64
-22.92
-20.83
-16.59
-13.17
-12.20
-13.60
-15.56
-15.98
-13.74
-9.21
-4.15
-0.11
1.58
0.89
-1.48
-4.19
-6.10
-6.81
-6.28
-5.55
-5.43
-6.86
-9.51
-12.36
-13.89
-12.69
-9.04
-4.07
0.57
3.92
5.80
7.11
8.23
8.73
8.20
6.38
4.55
4.25
6.56
10.42
12.84
10.70
2.28
-10.48
-23.60
-32.40
-34.46
-30.05
-21.66
-12.05
-2.27
7.89
19.95
34.32
49.92
63.55
71.25
70.52
61.14
46.17
29.89
16.17
5.99
-1.97
-10.29
-20.22
-30.03
-36.43
-35.79
-27.72
-15.06
-3.19
3.02
1.97
-4.42
-11.58
-15.69
-14.73
-9.69
-3.39
0.68
0.20
-4.73
-11.73
-16.76
-16.71
-10.56
-1.00
7.36
10.62
7.89
2.47
-0.78
1.80
9.82
19.02
24.05
22.24
15.54
8.99
7.91
13.61
23.02
30.63
31.87
25.73
14.76
3.43
-5.26
-10.44
-13.58
-16.52
-19.94
-23.12
-24.52
-23.23
-19.24
-13.92
-8.43
-3.86
-0.58
1.33
1.64
0.39
-2.16
-4.77
-5.77
-3.83
0.91
6.56
10.26
9.31
3.50
-4.95
-12.15
-15.19
-13.62
-9.51
-6.18
-5.59
-8.03
-11.72
-14.91
-16.99
-18.75
-21.70
-26.27
-31.35
-34.24
-32.74
-25.51
-13.46
1.08
15.02
25.22
29.90
28.99
24.68
20.17
18.92
22.49
29.57
37.05
41.23
40.15
33.86
24.82
15.81
9.23
5.97
5.78
8.00
11.29
14.34
14.88
10.79
0.81
-14.00
-30.14
-42.69
-47.16
-42.16
-29.58
-14.61
-2.53
3.16
2.00
-3.82
-11.09
-16.92
-19.99
-19.77
-16.04
-8.68
1.61
12.59
21.00
23.23
17.87
6.03
-8.07
-19.51
-24.52
-21.97
-14.16
-4.55
3.18
7.49
8.67
8.21
7.55
7.22
6.78
5.13
2.22
-1.41
-3.84
-3.56
-0.06
5.31
10.04
11.90
9.85
5.05
-0.45
-4.25
-5.64
-5.35
-5.00
-5.96
-7.55
-7.63
-3.23
6.86
21.10
35.23
44.17
45.10
38.31
27.70
17.85
11.68
8.67
6.20
1.84
-4.41
-9.64
-10.54
-5.39
3.75
12.29
15.81
12.64
4.95
-3.37
-8.34
-8.75
-5.96
-3.28
-3.40
-7.02
-12.89
-18.33
-21.18
-20.69
-18.41
-16.93
-19.04
-25.91
-36.22
-47.12
-54.80
-56.89
-52.41
-42.45
-29.01
-14.45
-1.09
9.30
15.36
17.40
16.68
15.22
14.68
15.43
16.89
17.87
18.27
18.56
19.86
22.57
25.75
27.73
26.70
22.63
16.90
12.31
10.63
12.14
14.91
16.34
14.60
9.40
2.79
-2.94
-5.90
-6.25
-5.46
-5.34
-6.98
-9.76
-12.69
-14.90
-16.74
-18.75
-20.95
-21.89
-19.50
-12.88
-3.28
5.59
9.52
5.85
-4.55
-17.52
-27.86
-31.63
-27.99
-18.80
-7.75
2.29
9.66
14.90
19.42
24.14
29.00
32.31
32.30
27.62
19.02
8.99
0.72
-2.97
-1.40
4.02
9.97
13.58
12.89
8.20
1.30
-5.71
-11.13
-14.47
-15.89
-16.01
-14.98
-12.83
-9.25
-4.76
-0.83
0.87
-1.02
-5.98
-12.05
-15.90
-15.28
-9.91
-1.93
4.80
7.15
4.03
-2.77
-9.70
-13.25
-11.84
-6.70
-0.67
3.31
4.35
3.48
3.04
4.61
7.82
11.14
12.78
12.55
11.91
13.22
17.15
22.32
25.90
25.00
19.20
10.52
2.16
-4.23
-8.61
-12.71
-17.82
-23.02
-25.95
-24.11
-16.96
-6.31
3.92
10.51
12.22
10.20
6.96
4.46
3.35
2.64
1.40
-0.85
-3.45
-4.79
-3.48
1.48
9.26
17.88
24.21
25.65
21.23
12.19
1.54
-7.52
-12.60
-13.69
-12.12
-10.09
-9.56
-11.09
-14.39
-18.45
-22.69
-26.39
-29.43
-31.31
-31.25
-28.53
-22.61
-13.72
-2.69
8.32
16.81
20.68
19.49
14.85
9.85
7.80
9.72
14.78
19.92
22.68
21.88
18.77
15.88
15.02
16.47
18.09
17.48
13.12
5.49
-3.15
-10.70
-15.99
-19.26
-21.14
-22.29
-22.19
-19.82
-14.46
-6.38
2.53
9.85
13.53
13.14
10.05
6.58
4.32
3.50
3.30
2.28
0.04
-3.15
-5.89
-6.74
-5.09
-1.62
1.87
3.87
3.31
1.04
-1.41
-2.72
-2.51
-2.13
-3.74
-8.67
-15.93
-22.58
-24.11
-17.58
-3.51
14.17
29.41
37.51
37.00
29.75
18.92
7.58
-2.56
-10.79
-16.27
-18.26
-16.23
-11.65
-7.81
-8.47
-15.75
-28.13
-40.55
-46.71
-42.95
-29.68
-11.42
5.96
18.55
25.45
28.03
27.80
25.51
20.44
12.49
3.21
-4.01
-5.21
1.62
15.26
31.30
44.46
50.35
47.27
36.41
20.93
5.26
-6.53
-11.33
-8.75
-0.79
8.47
14.78
15.20
9.33
-0.61
-11.27
-19.54
-23.93
-24.62
-23.07
-20.75
-18.59
-17.11
-16.07
-15.24
-14.38
-13.15
-11.34
-9.14
-7.09
-5.79
-5.96
-7.50
-9.70
-11.12
-10.17
-5.91
1.51
10.30
17.97
21.95
21.22
16.63
10.59
5.93
3.80
3.63
3.55
2.05
-0.93
-3.70
-4.37
-2.33
1.06
3.11
1.94
-2.20
-6.80
-8.75
-6.46
-0.85
4.95
8.04
6.50
0.89
-7.07
-14.61
-19.50
-20.36
-16.48
-8.59
1.78
12.28
20.82
25.95
27.41
26.12
23.17
19.73
16.06
12.05
7.26
1.65
-4.49
-10.56
-15.47
-18.41
-18.69
-16.67
-13.57
-11.10
-10.58
-11.94
-14.19
-15.23
-13.89
-10.02
-5.34
-1.90
-1.00
-2.43
-4.10
-4.06
-1.17
3.42
8.01
10.94
12.43
13.99
17.03
21.84
26.30
27.74
23.79
14.61
2.11
-10.72
-21.22
-28.43
-32.25
-33.55
-32.87
-30.88
-27.77
-23.24
-16.74
-7.74
3.20
14.40
22.61
24.82
19.54
8.16
-5.24
-16.07
-20.82
-19.46
-14.62
-10.43
-9.88
-13.61
-19.63
-24.00
-23.82
-17.82
-7.60
3.97
13.78
20.22
23.29
23.68
22.19
18.93
14.49
9.97
7.50
9.04
15.37
24.75
33.37
37.82
35.88
28.35
17.67
7.09
-0.94
-5.59
-7.16
-6.91
-5.90
-4.87
-3.81
-2.22
0.13
3.09
5.68
7.05
6.54
4.40
1.13
-2.66
-6.44
-9.54
-11.11
-10.19
-5.80
1.68
10.58
17.98
21.58
20.66
15.96
9.70
3.59
-1.55
-6.25
-11.12
-16.11
-20.07
-20.74
-16.29
-6.03
8.03
21.99
31.25
33.12
27.92
18.78
10.28
5.15
3.70
3.86
3.41
1.47
-0.86
-1.82
-1.23
-0.35
-1.78
-6.91
-15.26
-24.41
-31.35
-34.24
-32.55
-27.29
-19.71
-11.55
-4.50
-0.44
-0.93
-6.15
-14.30
-21.58
-24.83
-22.58
-16.49
-9.63
-4.74
-2.77
-2.00
-0.31
3.86
9.51
14.45
16.23
13.84
8.52
2.43
-1.98
-3.79
-3.04
-0.37
3.78
8.97
14.18
17.94
18.27
14.04
5.09
-6.94
-18.85
-27.08
-28.98
-24.08
-13.71
-1.29
9.62
16.08
16.95
13.29
7.71
3.33
1.79
3.12
5.53
7.13
7.28
6.68
6.84
8.47
11.25
13.05
11.99
7.24
0.21
-5.96
-8.17
-5.16
1.68
9.47
14.88
15.88
12.16
4.84
-3.88
-11.81
-16.64
-16.63
-10.36
2.51
20.64
40.37
56.24
62.99
57.16
39.33
13.77
-12.90
-34.46
-47.38
-52.02
-52.22
-52.15
-54.61
-58.54
-60.42
-56.29
-44.67
-27.67
-9.66
4.86
14.19
19.07
22.32
26.29
31.83
38.07
43.32
46.49
46.64
43.64
37.25
28.09
17.26
6.41
-2.91
-10.28
-16.29
-22.12
-28.08
-33.26
-35.65
-33.24
-26.07
-15.97
-6.35
0.41
3.46
4.17
4.79
6.74
10.15
13.69
16.21
16.71
15.41
12.95
10.07
6.94
3.16
-1.35
-6.48
-10.96
-13.93
-14.66
-13.06
-9.28
-3.39
4.02
11.82
17.61
19.11
15.26
7.50
-0.55
-4.96
-3.52
2.31
8.72
11.20
7.56
-1.03
-11.04
-18.86
-23.30
-25.62
-28.61
-33.59
-39.82
-44.62
-45.07
-39.80
-29.25
-15.63
-0.97
12.84
24.76
34.17
40.27
42.37
39.59
32.22
21.43
9.77
-0.30
-6.65
-8.38
-5.70
0.31
7.85
14.69
18.50
17.80
12.42
3.99
-4.30
-9.45
-9.62
-5.69
0.08
4.80
6.64
5.42
2.06
-1.94
-5.67
-8.00
-8.19
-5.42
0.76
9.64
19.46
27.59
31.67
29.77
21.93
9.62
-4.14
-15.92
-22.89
-23.70
-19.18
-11.75
-4.55
0.49
3.02
4.00
4.81
5.64
6.07
4.91
2.06
-1.72
-5.34
-8.46
-11.86
-16.75
-23.70
-30.84
-35.17
-33.70
-25.74
-13.54
-1.63
5.51
5.81
0.20
-7.68
-14.01
-15.95
-12.66
-5.31
4.38
14.24
22.79
28.33
30.02
27.71
22.44
16.54
12.17
10.85
11.96
13.92
14.51
12.41
7.70
1.82
-3.39
-7.14
-9.77
-12.47
-15.74
-19.13
-21.50
-21.77
-19.80
-16.50
-13.56
-11.84
-11.80
-12.94
-14.25
-14.64
-13.12
-9.35
-3.61
2.82
8.24
11.41
11.99
11.16
10.52
11.57
13.96
16.23
16.55
14.13
9.86
5.33
2.17
0.67
0.19
-0.52
-1.94
-3.82
-5.64
-6.94
-7.91
-8.52
-8.68
-7.56
-4.62
0.16
5.80
10.79
14.04
15.45
16.25
18.14
22.01
27.27
31.61
32.45
28.01
19.19
8.57
-0.30
-5.33
-6.88
-7.58
-10.87
-18.52
-30.09
-42.06
-50.57
-52.35
-46.83
-35.58
-21.62
-8.47
1.12
4.97
2.41
-6.03
-18.05
-30.31
-39.07
-41.54
-36.95
-26.30
-12.35
1.99
14.41
23.85
30.33
34.00
35.26
34.22
31.43
27.38
23.30
20.11
18.35
18.47
20.46
24.36
29.20
33.47
34.37
29.61
18.07
1.14
-17.43
-33.16
-41.88
-41.92
-33.83
-20.53
-5.33
8.83
19.81
27.01
30.22
30.14
27.55
23.92
20.45
17.82
16.01
14.14
11.54
7.26
1.51
-4.96
-10.86
-14.92
-16.69
-16.46
-15.64
-15.37
-16.51
-18.65
-20.90
-21.98
-20.84
-17.40
-12.21
-7.05
-3.73
-4.19
-9.03
-17.30
-26.72
-33.94
-36.62
-33.60
-26.03
-15.84
-5.07
5.06
14.34
22.27
28.14
30.34
28.18
21.64
12.39
2.86
-5.10
-10.44
-13.37
-14.11
-12.87
-9.29
-3.41
3.65
10.18
14.07
14.71
12.54
9.57
7.42
7.23
8.70
10.61
11.87
11.53
9.61
6.26
2.07
-2.57
-7.31
-11.14
-12.67
-10.14
-3.01
8.09
20.18
29.40
32.34
27.84
17.87
6.43
-1.85
-4.45
-1.59
3.75
7.56
7.07
1.98
-4.86
-9.66
-8.61
-0.66
12.62
26.88
37.03
39.49
33.78
23.64
14.73
12.51
18.77
30.39
40.83
43.09
33.55
12.95
-13.43
-38.95
-57.83
-67.07
-66.65
-58.79
-47.45
-36.82
-31.04
-32.32
-40.18
-50.70
-57.94
-56.63
-44.23
-22.64
3.15
26.39
41.83
46.93
42.42
31.45
17.51
4.26
-6.13
-12.20
-13.50
-9.98
-2.44
7.50
17.40
23.98
25.12
20.24
11.30
1.34
-6.64
-11.47
-14.08
-16.26
-19.28
-22.62
-24.98
-24.98
-22.11
-17.20
-11.67
-7.03
-3.53
-1.10
1.27
3.92
6.66
8.38
7.65
3.80
-2.85
-9.80
-13.99
-12.59
-4.94
7.47
21.29
33.04
41.07
45.20
46.83
46.46
43.55
36.32
23.77
6.86
-11.13
-25.01
-30.46
-25.73
-12.98
2.20
13.14
15.30
8.97
-1.21
-8.08
-6.83
3.04
16.81
28.18
32.52
29.07
20.84
11.88
4.98
0.39
-2.82
-5.47
-7.25
-6.76
-3.54
1.68
6.66
9.67
9.99
8.07
4.84
0.55
-4.89
-11.99
-20.46
-29.35
-37.34
-43.31
-46.56
-46.68
-43.79
-37.83
-29.59
-20.23
-11.74
-5.66
-2.59
-1.60
-0.85
1.12
4.83
9.25
12.47
13.17
11.08
7.67
4.89
4.49
6.31
8.81
9.77
7.72
3.14
-1.79
-4.18
-2.75
2.01
7.58
11.10
10.90
7.38
2.97
-0.17
-0.92
0.01
1.35
2.40
3.46
5.35
8.06
10.69
11.40
9.32
4.91
-0.20
-4.11
-6.08
-6.51
-7.27
-9.43
-13.13
-16.74
-18.52
-17.30
-13.29
-7.78
-1.70
4.25
10.16
15.63
20.10
22.53
22.28
19.86
16.55
14.48
15.32
19.16
24.20
27.21
25.00
15.90
1.28
-15.50
-29.75
-37.98
-38.67
-32.85
-23.17
-12.07
-1.49
8.32
17.28
25.45
32.01
36.07
37.31
35.57
31.22
24.07
14.15
2.00
-10.18
-19.63
-24.20
-23.77
-20.97
-19.46
-21.87
-27.98
-34.74
-38.36
-36.87
-31.42
-24.79
-19.55
-15.76
-12.02
-6.77
-0.21
5.78
9.22
9.56
8.87
9.57
13.24
18.55
22.32
21.53
14.84
4.07
-7.24
-15.33
-18.34
-16.12
-10.16
-2.86
3.18
5.65
3.70
-2.24
-9.89
-16.03
-18.04
-15.05
-8.63
-1.71
2.36
1.96
-2.42
-8.10
-11.57
-9.80
-1.82
10.35
23.20
32.44
35.66
32.53
24.97
15.78
6.85
-0.96
-8.08
-14.07
-17.83
-17.32
-11.43
-1.57
8.51
14.01
12.49
4.82
-4.53
-10.61
-10.39
-4.29
4.49
12.83
19.08
23.84
27.76
30.52
29.60
22.34
7.77
-12.27
-33.13
-50.03
-59.24
-59.51
-51.74
-38.15
-21.70
-5.63
6.58
12.44
10.91
3.81
-5.04
-10.96
-10.58
-3.24
8.99
22.06
32.34
37.27
36.37
30.61
21.42
10.31
-1.32
-11.33
-17.61
-18.32
-13.50
-4.68
5.54
15.07
23.39
30.13
34.60
34.81
28.78
16.00
-0.87
-16.61
-26.18
-27.29
-21.99
-14.97
-11.02
-11.81
-15.52
-18.50
-17.40
-11.46
-1.76
9.66
21.05
31.25
39.28
43.79
42.87
35.27
21.20
3.35
-13.65
-24.60
-26.55
-20.53
-10.75
-3.11
-1.36
-5.52
-11.57
-14.27
-10.12
0.65
14.00
24.86
29.44
27.37
20.99
13.99
9.16
7.08
6.57
5.09
0.50
-8.33
-20.64
-34.26
-45.91
-51.91
-49.81
-39.05
-21.93
-3.07
12.15
19.57
17.62
7.75
-6.13
-19.74
-29.17
-32.12
-28.02
-18.23
-5.48
7.17
16.83
22.19
23.22
21.34
17.83
13.27
7.22
-1.07
-10.87
-20.23
-26.29
-27.76
-25.17
-21.13
-18.67
-18.81
-20.44
-20.78
-17.47
-10.22
-0.99
7.41
12.77
14.71
14.62
13.57
11.98
8.83
3.50
-3.56
-10.25
-13.19
-9.92
0.41
15.65
31.89
44.33
49.30
45.49
34.41
19.96
6.85
-0.69
-1.30
3.84
10.95
15.30
13.56
5.30
-6.83
-18.23
-23.99
-21.65
-11.64
2.35
15.19
22.79
23.55
19.08
12.63
7.73
5.72
5.61
4.89
1.29
-4.82
-11.03
-13.84
-11.38
-4.44
3.30
7.68
6.04
-1.03
-9.96
-16.68
-18.47
-14.98
-7.91
0.28
7.70
13.32
16.27
15.87
11.57
3.97
-5.06
-12.82
-17.05
-16.80
-12.83
-7.33
-1.99
2.64
7.31
12.93
19.11
23.78
23.72
17.03
4.08
-11.52
-24.64
-30.64
-27.74
-17.69
-5.02
5.36
10.30
9.56
5.54
1.38
-0.69
0.16
2.95
5.90
6.88
4.48
-1.55
-9.95
-18.41
-24.65
-27.10
-26.34
-23.93
-21.53
-19.52
-17.14
-13.08
-6.64
0.91
7.48
10.80
10.74
8.79
7.45
8.08
10.19
11.48
9.39
3.27
-5.66
-14.37
-19.95
-20.63
-16.20
-8.32
0.50
7.16
9.71
7.58
2.16
-3.86
-8.02
-8.61
-5.99
-1.50
2.39
4.20
3.43
0.96
-1.08
-0.30
5.20
15.61
29.91
45.18
58.03
65.05
64.25
55.71
40.92
22.59
3.44
-14.05
-28.42
-38.80
-45.17
-47.72
-46.28
-40.78
-30.93
-17.69
-3.36
8.92
16.14
17.13
12.74
5.94
-0.46
-4.53
-6.08
-6.05
-5.65
-5.36
-4.71
-3.38
-1.35
0.47
1.06
-0.21
-3.12
-6.20
-7.75
-6.48
-2.30
3.66
9.18
12.05
10.44
4.07
-5.30
-14.78
-20.86
-21.51
-16.91
-9.41
-2.03
3.21
5.55
6.14
6.21
6.35
6.33
5.91
5.44
6.08
9.49
15.79
23.39
28.98
29.81
25.15
16.37
6.63
-1.34
-6.05
-8.10
-8.80
-9.55
-10.82
-12.32
-13.66
-14.51
-15.37
-16.60
-18.44
-20.34
-21.58
-21.49
-19.50
-15.96
-10.97
-5.07
1.28
7.22
12.03
14.95
15.89
15.86
16.10
18.45
23.12
29.21
34.24
35.26
30.59
20.30
6.88
-6.80
-17.67
-24.67
-28.07
-28.98
-28.38
-26.30
-22.36
-15.97
-7.77
1.09
8.53
12.88
13.54
10.62
5.51
-0.35
-5.15
-8.02
-8.20
-6.11
-2.38
1.95
5.50
7.35
6.62
3.74
-0.62
-5.20
-8.90
-10.76
-9.84
-6.15
0.10
7.33
13.56
16.37
14.71
9.01
1.09
-6.03
-10.30
-10.75
-8.40
-4.89
-1.83
-0.10
0.31
-0.59
-2.51
-6.10
-11.82
-20.25
-30.75
-41.29
-48.36
-48.12
-38.73
-21.10
0.02
18.61
30.03
33.78
33.56
34.30
39.29
47.39
54.58
56.05
49.87
38.29
25.75
16.68
12.59
12.25
12.42
10.58
5.80
-1.02
-8.06
-14.20
-18.69
-21.62
-22.74
-21.52
-17.01
-8.98
1.34
11.55
18.35
19.95
16.38
9.80
2.58
-4.13
-10.96
-19.61
-30.60
-43.14
-54.48
-62.16
-65.15
-64.31
-61.30
-56.54
-49.21
-37.45
-20.82
-0.98
18.28
33.27
42.20
45.46
45.20
43.27
40.87
38.12
35.14
32.04
28.94
25.86
21.96
16.94
10.60
3.98
-1.17
-3.29
-1.89
1.87
6.25
9.01
9.33
7.19
4.17
1.81
1.48
3.56
7.18
10.83
12.56
11.68
8.46
4.47
1.30
-0.23
-0.31
0.10
0.39
-0.03
-1.03
-2.70
-5.21
-8.69
-13.23
-18.08
-22.47
-25.38
-26.18
-24.72
-21.41
-17.22
-13.28
-11.20
-11.79
-15.48
-21.16
-27.08
-30.91
-31.15
-27.80
-21.64
-14.49
-7.48
-1.48
3.44
7.30
10.21
12.13
13.07
13.47
13.85
14.56
15.28
15.19
13.69
10.98
8.52
8.04
10.79
16.53
23.12
27.47
27.18
21.82
13.03
4.39
-0.69
-0.26
5.14
12.99
19.98
22.78
19.61
9.98
-4.33
-20.01
-32.52
-37.89
-34.07
-21.67
-4.15
13.83
28.07
36.33
38.68
36.82
32.81
28.08
23.21
17.89
11.70
4.39
-3.59
-11.25
-16.94
-18.98
-16.74
-11.21
-5.24
-2.27
-5.00
-13.89
-26.58
-39.16
-47.28
-48.35
-42.04
-31.18
-19.93
-12.30
-10.33
-13.32
-18.58
-22.81
-23.99
-21.89
-18.03
-14.37
-11.94
-10.59
-9.08
-6.40
-1.98
3.41
8.43
11.45
11.22
7.72
2.24
-2.43
-3.38
1.45
11.48
23.94
35.05
41.92
43.99
42.41
39.50
36.55
33.88
31.05
27.65
24.08
21.22
19.50
18.08
15.53
10.54
2.55
-7.41
-17.62
-25.88
-30.68
-31.29
-28.32
-22.72
-16.19
-10.52
-6.77
-5.66
-6.84
-10.16
-15.23
-22.07
-29.52
-35.54
-37.27
-32.07
-19.68
-2.46
14.41
25.85
28.73
23.00
11.78
-0.60
-9.72
-12.96
-9.20
0.66
14.38
28.71
39.98
45.59
44.70
38.89
30.80
23.58
18.78
16.37
15.20
13.58
10.71
6.26
1.12
-3.91
-7.78
-10.11
-11.33
-12.40
-14.25
-16.34
-17.33
-14.62
-6.57
6.37
20.87
31.78
34.89
28.40
14.65
-1.58
-15.06
-22.90
-25.20
-24.34
-23.10
-22.66
-22.85
-21.86
-18.71
-13.72
-8.97
-6.88
-8.40
-12.81
-17.36
-19.56
-18.09
-13.75
-8.52
-4.40
-2.44
-2.16
-2.76
-3.11
-3.17
-3.18
-3.70
-4.94
-5.98
-5.59
-2.75
2.19
7.68
11.58
12.51
10.64
7.81
6.35
7.06
9.25
10.45
8.99
4.84
-0.06
-2.98
-2.78
-0.37
1.65
1.51
-0.86
-3.90
-6.12
-7.69
-10.24
-15.35
-22.34
-28.34
-29.22
-22.48
-9.33
5.61
16.37
19.81
16.55
11.14
9.02
13.58
24.05
36.24
44.67
45.14
37.08
22.91
6.95
-6.89
-16.33
-20.88
-21.38
-18.90
-14.77
-10.15
-6.19
-3.44
-1.81
-0.22
2.76
8.17
16.29
25.50
33.21
36.69
34.29
26.24
14.19
0.99
-11.12
-20.57
-27.07
-30.76
-32.03
-30.76
-26.99
-22.04
-18.18
-18.28
-23.43
-31.94
-39.27
-40.63
-33.84
-20.58
-6.34
3.31
5.51
2.14
-2.31
-3.24
0.95
8.23
15.62
20.85
24.30
27.51
31.53
35.15
35.64
31.00
21.33
9.76
0.11
-4.98
-6.22
-6.58
-8.75
-13.33
-17.24
-16.30
-7.31
8.89
27.67
42.23
46.80
39.62
23.00
2.65
-15.33
-26.08
-27.75
-21.26
-9.64
2.66
11.62
14.05
9.39
-0.61
-12.04
-20.79
-24.08
-21.33
-14.49
-6.32
0.99
7.07
12.40
17.19
20.52
20.34
15.65
7.07
-2.32
-8.96
-10.08
-5.72
1.38
7.14
7.92
2.90
-6.27
-16.28
-24.21
-28.89
-31.14
-32.66
-34.28
-35.82
-35.79
-32.58
-25.44
-15.54
-5.54
1.68
4.32
2.73
-1.20
-4.78
-6.40
-5.42
-1.96
3.34
10.17
17.99
25.96
32.08
34.41
31.35
23.00
11.70
0.66
-6.79
-9.56
-8.57
-6.58
-6.23
-9.25
-15.70
-23.72
-30.82
-34.29
-32.32
-24.21
-11.40
3.33
16.63
25.77
30.28
31.39
31.84
33.36
36.00
37.97
37.25
33.41
28.25
25.14
25.88
29.71
32.53
29.50
18.13
0.42
-17.41
-28.92
-30.61
-24.69
-16.76
-12.63
-14.75
-20.78
-25.83
-25.27
-17.77
-5.00
9.18
21.52
30.33
35.32
37.39
36.90
34.12
28.53
20.46
10.47
-0.02
-9.21
-15.59
-18.18
-17.72
-15.60
-13.82
-13.00
-12.30
-9.80
-3.96
4.63
13.76
20.13
22.03
19.71
15.25
10.75
6.37
0.58
-9.00
-22.90
-39.26
-53.76
-61.92
-61.34
-52.15
-36.96
-18.74
-0.72
14.63
25.04
29.10
27.02
20.87
15.00
13.50
18.58
28.07
36.58
37.77
28.07
9.03
-13.77
-33.30
-44.99
-48.38
-46.96
-45.01
-45.13
-46.64
-46.59
-42.53
-33.74
-22.38
-11.31
-2.04
6.49
16.68
29.62
43.67
53.89
55.29
45.58
27.52
7.86
-6.17
-10.14
-4.65
6.27
16.99
23.45
23.86
18.29
8.16
-4.49
-16.96
-26.19
-29.49
-26.22
-18.46
-10.55
-6.64
-8.39
-14.15
-19.47
-20.41
-15.32
-6.03
3.67
10.18
11.73
9.33
5.06
1.12
-1.95
-4.70
-7.85
-10.87
-11.47
-7.18
3.20
17.51
31.40
39.83
40.15
33.30
23.12
14.58
10.47
10.97
13.84
16.51
17.37
16.05
12.63
6.60
-2.28
-13.95
-26.40
-36.75
-42.20
-41.77
-37.07
-30.79
-25.88
-23.16
-21.58
-18.68
-12.22
-1.96
10.40
21.39
27.99
28.19
22.71
14.05
5.93
1.81
3.22
9.75
19.11
28.97
36.91
42.02
44.08
43.63
41.42
37.78
33.04
26.74
18.76
8.94
-1.72
-11.37
-18.05
-20.12
-17.97
-13.67
-10.56
-11.35
-16.67
-24.96
-33.00
-37.96
-38.02
-33.77
-26.70
-18.97
-12.01
-6.34
-1.60
2.88
7.14
11.17
14.22
16.37
17.81
19.41
21.77
24.68
27.46
28.75
28.01
24.81
19.55
12.40
3.04
-9.03
-23.87
-39.61
-53.40
-61.80
-62.94
-57.15
-46.99
-36.21
-27.56
-22.62
-20.94
-21.31
-21.64
-20.22
-15.96
-8.57
0.77
10.10
16.52
18.28
15.11
9.31
4.73
4.65
10.18
18.83
26.23
27.84
22.30
12.17
2.97
0.34
6.60
19.87
34.25
43.59
44.11
36.89
26.43
17.88
14.70
16.83
21.75
25.73
26.37
22.80
15.55
5.63
-5.93
-17.66
-27.91
-34.43
-35.81
-32.05
-25.19
-18.66
-15.42
-17.14
-23.04
-31.54
-40.30
-47.05
-49.55
-45.76
-34.98
-18.24
0.78
17.49
27.78
30.77
28.82
25.85
25.15
27.23
30.45
32.35
31.98
29.84
27.55
25.88
23.88
20.12
13.65
5.73
-1.25
-4.78
-4.27
-1.41
1.01
-0.09
-6.01
-16.55
-29.53
-41.88
-50.61
-53.47
-49.88
-40.72
-28.74
-16.52
-5.93
2.88
10.67
17.97
24.29
27.64
26.34
20.22
11.39
2.43
-4.71
-9.71
-13.72
-17.17
-19.51
-18.91
-14.00
-4.84
6.41
16.81
24.71
30.23
35.49
41.94
49.27
54.76
54.72
46.31
29.31
7.06
-15.49
-33.14
-42.61
-43.19
-37.01
-27.89
-19.29
-13.81
-11.97
-13.22
-16.02
-19.03
-20.99
-20.73
-17.45
-10.56
-0.90
9.27
16.57
18.05
12.57
1.91
-9.16
-15.37
-12.94
-2.42
11.86
23.66
28.02
23.58
12.60
-0.21
-10.83
-17.18
-19.90
-20.08
-18.35
-14.22
-6.76
3.37
13.68
20.08
19.44
11.39
-0.92
-12.37
-18.84
-19.10
-15.44
-11.24
-8.87
-7.88
-6.17
-2.02
4.41
10.54
13.63
12.08
7.24
2.01
-1.07
-1.55
-1.59
-3.60
-8.64
-14.82
-19.09
-18.56
-12.99
-4.45
3.97
9.85
12.63
12.84
11.70
9.77
7.13
3.73
0.00
-2.91
-4.43
-4.67
-4.93
-6.76
-11.02
-16.84
-21.43
-21.20
-12.71
4.65
28.52
53.09
71.67
79.52
75.62
63.59
49.34
38.44
32.68
30.57
28.45
23.23
14.01
1.84
-10.64
-21.36
-28.56
-31.51
-30.16
-25.16
-18.16
-10.96
-5.74
-3.62
-4.46
-7.07
-10.18
-12.97
-15.63
-19.17
-24.07
-30.41
-36.70
-41.25
-42.03
-37.79
-28.65
-16.26
-3.81
5.73
9.86
8.32
2.53
-4.74
-10.36
-12.10
-8.51
0.06
12.29
25.48
36.61
43.05
43.20
37.11
25.79
11.40
-4.10
-18.28
-28.78
-32.67
-27.81
-14.22
5.22
24.10
35.78
35.64
24.36
7.32
-8.02
-15.81
-15.04
-9.00
-3.70
-3.54
-9.69
-19.42
-28.41
-33.33
-33.20
-29.54
-24.20
-18.72
-13.08
-6.98
-0.42
5.57
9.06
9.24
6.42
2.91
1.20
2.97
7.65
12.75
15.51
13.85
8.24
0.55
-6.19
-9.74
-9.32
-5.60
-0.59
4.08
7.18
8.86
9.47
9.41
8.41
5.80
1.42
-4.19
-8.96
-10.73
-7.75
-0.31
9.47
18.16
22.18
20.05
12.26
1.51
-8.78
-15.54
-17.51
-15.30
-10.57
-5.93
-2.94
-2.44
-3.51
-4.51
-3.77
-0.30
5.25
11.54
16.44
18.71
17.77
14.51
10.28
6.27
3.21
0.83
-0.74
-1.27
0.22
4.41
11.32
19.53
26.08
28.02
23.09
11.57
-4.04
-19.17
-29.73
-33.94
-33.05
-30.91
-30.92
-34.17
-38.01
-38.12
-30.76
-15.10
5.50
25.46
38.97
43.10
37.87
26.16
11.51
-3.12
-15.45
-24.31
-28.78
-29.21
-26.89
-24.36
-23.78
-25.62
-28.40
-28.93
-24.84
-15.39
-2.60
10.68
22.00
30.99
38.93
46.65
53.36
56.13
52.67
42.96
30.25
19.34
13.23
11.45
9.84
4.11
-7.65
-22.94
-36.25
-42.45
-39.20
-28.53
-15.10
-3.97
2.43
4.57
5.25
7.30
11.41
16.07
18.11
15.56
8.80
1.04
-3.86
-3.46
1.81
8.58
13.20
13.31
9.41
3.76
-1.06
-3.69
-4.70
-5.41
-7.44
-10.89
-15.14
-18.75
-20.14
-18.44
-13.64
-6.96
-0.09
4.92
7.20
6.99
5.39
3.92
3.24
3.40
3.50
3.15
2.44
2.25
3.40
6.26
10.25
13.82
15.37
13.80
9.47
3.61
-2.11
-6.12
-7.87
-7.32
-5.47
-3.13
-1.43
-1.08
-2.68
-6.30
-11.04
-15.62
-18.33
-18.46
-16.02
-12.05
-7.67
-3.48
0.21
3.75
6.91
9.39
10.50
10.13
8.39
5.81
3.22
1.06
-0.21
-0.70
-0.15
1.21
2.88
4.12
3.88
1.85
-1.59
-4.90
-6.61
-5.40
-1.41
4.10
9.21
11.83
10.97
6.56
-0.02
-7.28
-13.56
-17.69
-19.01
-17.04
-11.84
-3.98
4.56
11.47
14.44
12.49
7.08
1.31
-1.28
1.02
7.78
16.05
22.43
24.83
23.59
20.93
18.99
18.84
19.18
18.04
13.52
5.36
-5.06
-15.48
-23.63
-28.46
-29.69
-28.17
-24.72
-20.35
-15.89
-12.31
-10.32
-10.09
-11.56
-13.95
-16.63
-19.38
-22.24
-24.97
-26.64
-26.24
-22.69
-16.09
-7.50
0.95
7.37
10.71
11.27
10.73
10.84
12.98
17.05
21.84
25.32
25.81
22.49
15.65
6.80
-2.40
-9.97
-14.60
-15.63
-13.52
-9.47
-4.73
-0.50
2.99
5.68
7.78
9.11
9.31
8.20
5.86
3.19
1.11
0.66
2.06
5.15
9.33
13.78
17.71
19.85
19.10
14.66
6.88
-2.59
-10.72
-14.76
-13.48
-7.65
-0.10
6.03
8.15
5.86
0.62
-5.03
-8.49
-8.67
-5.78
-1.64
1.70
2.47
-0.04
-5.53
-13.03
-20.74
-27.04
-29.97
-28.49
-22.26
-12.11
0.18
12.48
22.41
28.49
29.94
27.39
22.35
17.29
14.34
14.47
17.02
19.79
20.50
17.06
9.28
-1.65
-13.71
-24.34
-31.64
-34.03
-30.82
-21.88
-8.47
6.88
20.46
27.98
27.00
17.61
3.63
-9.71
-17.52
-17.55
-10.71
-0.00
10.97
19.98
25.48
26.81
23.38
15.50
4.65
-6.10
-12.97
-13.83
-8.87
-1.78
2.84
1.36
-6.75
-18.39
-29.09
-35.00
-34.83
-29.49
-21.77
-14.37
-8.57
-4.62
-1.66
0.71
2.81
4.02
3.89
2.23
-0.32
-2.70
-4.21
-4.30
-3.59
-2.86
-3.21
-5.08
-8.64
-13.69
-19.51
-25.56
-30.69
-34.06
-34.44
-31.48
-25.49
-16.91
-6.32
6.16
20.14
35.04
48.69
58.14
60.59
54.93
43.06
28.73
16.86
10.58
11.09
17.00
25.98
35.42
42.94
47.03
46.38
40.73
30.64
17.84
4.34
-7.83
-16.85
-21.83
-22.12
-18.48
-12.23
-5.90
-1.88
-1.37
-4.00
-7.59
-10.14
-10.21
-8.70
-7.25
-7.59
-10.06
-13.33
-15.67
-15.43
-12.59
-7.72
-2.07
3.76
9.26
13.61
15.52
13.14
5.78
-5.99
-19.17
-30.16
-35.71
-34.62
-28.64
-21.02
-15.48
-13.88
-16.16
-20.01
-22.30
-20.56
-13.74
-3.10
9.04
19.45
25.70
26.24
21.18
12.12
1.62
-6.96
-11.23
-10.16
-5.35
-0.01
2.34
-0.23
-6.77
-14.05
-17.41
-13.66
-2.16
13.93
29.36
38.77
38.86
30.22
16.77
4.53
-1.80
-0.57
5.92
13.04
16.69
15.34
10.81
5.61
1.24
-3.55
-10.81
-21.06
-31.75
-37.88
-35.58
-24.60
-9.61
2.80
7.72
4.47
-3.40
-11.09
-15.03
-15.01
-12.46
-9.10
-4.92
1.24
9.96
20.16
28.79
33.29
32.79
29.33
26.01
25.15
26.65
27.90
25.95
18.57
6.02
-10.08
-27.22
-43.02
-55.49
-62.92
-64.45
-60.02
-51.67
-42.16
-34.49
-30.08
-28.18
-26.61
-22.40
-14.24
-1.99
12.64
27.81
41.63
52.60
59.85
62.63
60.80
54.38
44.48
32.37
19.71
8.05
-1.94
-10.00
-16.58
-21.53
-24.71
-25.33
-22.92
-17.83
-11.27
-5.57
-2.56
-3.65
-8.36
-15.04
-20.89
-23.08
-19.54
-9.14
7.15
27.22
47.31
63.68
72.96
73.09
63.39
44.50
19.34
-7.76
-30.96
-45.33
-48.41
-41.26
-28.40
-15.71
-8.47
-8.86
-16.07
-26.19
-34.21
-35.66
-27.94
-11.85
8.94
28.50
40.76
41.31
29.91
10.60
-9.63
-23.75
-28.10
-23.04
-12.81
-2.12
6.13
12.21
18.25
25.36
32.27
34.99
29.68
15.70
-2.63
-17.99
-24.08
-19.35
-8.31
2.07
6.16
3.06
-3.73
-9.65
-12.05
-11.65
-10.75
-10.98
-11.37
-10.09
-6.16
-1.04
2.11
0.99
-4.43
-11.04
-15.26
-14.84
-10.16
-3.16
4.03
10.09
14.57
16.95
16.68
13.27
7.49
0.81
-5.08
-9.42
-12.79
-15.65
-17.91
-18.05
-14.15
-5.48
6.40
17.79
24.68
24.39
17.54
7.25
-1.69
-5.37
-2.02
7.25
19.01
29.39
35.37
36.40
33.70
29.53
25.40
21.44
17.00
11.24
4.78
-1.04
-4.29
-4.20
-1.29
2.43
4.34
2.57
-3.78
-13.53
-24.25
-32.45
-35.49
-32.60
-25.82
-19.18
-16.24
-18.44
-23.42
-27.14
-25.73
-18.44
-7.65
2.56
8.72
10.24
8.36
5.28
1.76
-2.73
-8.85
-16.27
-22.45
-24.55
-20.50
-11.11
0.63
10.75
16.26
16.52
12.85
7.96
3.82
1.53
0.42
-0.59
-2.38
-4.83
-6.72
-7.12
-5.63
-3.22
-1.16
-0.24
0.42
2.73
7.78
15.03
21.45
23.75
19.73
10.39
-0.48
-8.53
-10.56
-6.74
0.60
7.69
11.84
11.88
8.21
2.28
-4.15
-8.89
-10.33
-7.22
0.05
9.83
19.16
25.05
25.78
21.13
13.07
4.36
-1.99
-4.36
-2.85
1.04
4.83
6.43
4.63
0.12
-5.73
-11.15
-14.84
-16.31
-15.31
-12.29
-7.82
-3.50
-0.83
-1.00
-3.87
-7.66
-10.05
-9.20
-5.34
-0.30
2.74
1.84
-3.18
-10.28
-16.16
-18.52
-16.60
-11.78
-6.18
-1.89
0.41
1.25
1.71
2.74
3.87
4.31
3.25
1.20
-0.50
-0.09
3.05
7.46
10.86
10.74
6.87
1.20
-2.96
-2.86
2.21
10.48
18.43
23.02
22.05
15.73
5.86
-4.52
-12.23
-15.09
-12.59
-6.56
0.37
5.14
6.49
4.86
1.79
-0.86
-2.53
-3.85
-6.69
-12.30
-21.01
-30.99
-39.12
-42.22
-38.17
-27.57
-12.85
2.04
13.70
19.94
20.87
18.36
14.78
12.44
12.00
13.12
14.41
14.67
13.29
10.70
8.33
7.41
8.76
11.44
14.09
15.19
14.46
12.79
11.35
11.15
11.66
12.02
11.09
8.91
6.18
3.83
2.46
1.40
-0.03
-2.83
-6.63
-10.61
-13.58
-14.71
-13.97
-11.52
-8.44
-5.52
-3.54
-2.81
-2.88
-3.08
-2.77
-2.17
-1.74
-2.42
-3.96
-5.64
-5.85
-3.46
1.01
5.87
8.66
8.18
4.50
-0.48
-4.52
-6.11
-5.06
-2.49
0.38
2.34
3.08
2.62
1.71
0.96
0.66
0.62
-0.16
-2.43
-6.29
-10.74
-13.92
-14.09
-10.93
-6.04
-1.76
-0.06
-0.72
-2.16
-2.27
-0.53
1.78
2.58
0.50
-3.54
-7.36
-8.73
-7.24
-4.44
-2.69
-3.46
-6.14
-8.93
-9.63
-7.66
-3.68
0.52
3.60
5.34
6.24
7.09
7.87
8.20
7.39
5.29
2.41
-0.44
-2.16
-2.31
-0.52
3.16
8.92
16.24
23.77
29.37
30.80
27.33
20.36
13.26
9.42
10.14
13.71
16.38
15.43
10.38
3.90
-0.91
-2.23
-1.45
-1.92
-6.11
-13.73
-21.05
-24.01
-20.42
-11.98
-3.14
1.66
0.34
-5.48
-12.16
-15.73
-14.75
-10.23
-5.07
-1.97
-1.66
-2.90
-3.22
-1.39
2.11
4.94
4.73
0.55
-6.23
-12.28
-14.49
-11.10
-3.15
6.63
14.63
18.34
17.05
11.44
3.45
-5.38
-13.44
-20.07
-24.82
-27.57
-28.51
-27.73
-25.51
-21.82
-17.12
-11.83
-6.74
-2.57
0.62
3.16
6.03
9.70
14.24
18.71
22.20
23.90
23.98
23.49
23.05
22.74
21.49
18.35
13.07
6.80
1.19
-2.73
-5.41
-8.63
-13.56
-19.84
-25.16
-26.68
-22.63
-13.62
-2.79
6.10
10.06
8.82
4.22
-0.90
-3.97
-3.91
-0.76
4.10
9.06
12.04
11.60
7.18
-0.23
-8.09
-13.62
-14.51
-10.28
-1.91
8.17
17.38
23.52
25.56
23.77
19.35
14.38
10.75
9.96
12.24
16.77
22.07
26.17
27.64
25.22
18.48
7.99
-4.12
-14.48
-20.09
-19.14
-12.77
-3.97
3.68
8.24
10.05
11.05
13.03
15.39
15.49
9.92
-2.50
-19.88
-37.40
-49.72
-53.73
-49.73
-41.61
-33.53
-28.33
-25.73
-23.46
-19.47
-13.58
-8.37
-6.89
-10.96
-18.89
-26.28
-28.00
-21.05
-6.44
11.39
26.06
32.71
29.82
20.12
8.94
1.82
2.24
10.03
22.02
32.96
38.87
38.15
32.11
23.57
14.94
7.57
1.15
-4.41
-9.05
-11.73
-11.75
-9.33
-6.07
-4.45
-6.24
-11.88
-19.50
-25.91
-27.70
-23.16
-12.96
0.31
12.84
21.12
22.72
17.56
7.29
-4.73
-14.99
-20.58
-19.95
-13.85
-4.49
4.60
10.45
11.59
8.82
4.69
1.45
0.48
1.10
2.34
3.13
3.86
5.24
7.63
10.39
11.56
9.69
4.52
-1.86
-6.47
-6.72
-2.10
5.13
11.64
13.84
10.53
2.40
-7.72
-16.52
-21.58
-21.90
-18.52
-13.16
-8.20
-4.75
-3.08
-2.29
-0.86
2.10
6.63
11.49
15.41
16.99
16.28
14.10
11.40
8.66
5.18
0.53
-5.00
-9.12
-9.23
-3.88
5.87
16.04
22.32
21.75
15.17
5.76
-2.31
-6.21
-5.95
-3.40
-1.21
-1.10
-3.76
-8.08
-12.57
-15.60
-15.79
-12.55
-6.30
1.47
8.77
13.26
13.83
10.71
5.88
1.78
-0.20
-0.06
0.39
-0.57
-3.22
-5.60
-4.62
1.64
12.53
23.84
30.67
29.30
19.70
5.04
-10.11
-22.13
-29.21
-30.69
-26.93
-17.95
-5.32
7.85
17.09
18.57
11.34
-1.70
-14.79
-22.63
-22.29
-14.98
-4.26
6.17
13.64
17.33
17.29
13.61
6.17
-4.22
-15.74
-25.40
-30.13
-29.37
-24.74
-20.02
-18.22
-20.33
-24.32
-26.62
-24.77
-18.27
-9.55
-1.58
3.06
3.94
2.49
1.14
2.34
7.22
15.79
26.12
35.61
41.33
40.99
34.64
24.46
14.00
6.81
4.63
6.33
9.26
10.30
7.85
2.76
-2.82
-6.07
-6.12
-3.94
-1.90
-2.29
-5.32
-9.58
-12.41
-12.67
-10.94
-9.35
-9.93
-12.52
-14.99
-14.37
-9.06
0.27
10.39
18.20
22.50
24.18
25.54
27.57
29.11
27.24
20.09
7.89
-5.91
-16.76
-21.24
-18.54
-11.29
-2.96
3.25
6.11
6.09
4.44
2.03
-1.01
-4.47
-7.93
-10.10
-9.82
-6.48
-0.49
6.67
12.89
16.03
14.97
9.29
0.02
-10.92
-21.04
-27.77
-29.46
-25.63
-18.25
-10.18
-5.03
-4.58
-8.65
-15.07
-20.50
-22.91
-21.78
-18.47
-14.88
-12.42
-10.93
-9.40
-6.71
-2.09
4.03
10.88
17.01
21.69
24.39
25.08
24.00
21.45
18.18
14.48
10.75
6.66
1.99
-3.49
-9.02
-12.76
-12.85
-7.87
1.51
13.18
23.44
29.03
28.48
22.41
13.49
4.47
-2.82
-8.30
-12.46
-16.06
-19.30
-21.49
-21.99
-20.21
-16.90
-13.23
-10.88
-10.76
-12.47
-14.14
-12.95
-7.26
3.11
15.84
27.37
33.83
32.84
24.75
12.29
0.02
-7.93
-8.57
-1.84
9.98
23.19
34.14
41.01
43.12
40.91
34.49
24.10
10.59
-3.85
-15.52
-21.05
-18.92
-11.14
-2.26
2.51
0.65
-6.62
-15.09
-19.90
-19.02
-13.92
-8.63
-6.53
-8.30
-11.87
-13.95
-12.86
-9.16
-5.95
-5.83
-9.62
-15.32
-19.57
-20.12
-16.64
-11.35
-6.56
-3.67
-1.90
0.82
6.08
13.99
22.54
28.97
30.68
27.41
20.71
13.76
9.15
7.71
7.92
7.10
3.57
-2.74
-10.04
-15.92
-19.05
-19.87
-20.15
-21.40
-24.32
-27.64
-29.57
-28.10
-21.94
-11.58
0.96
12.26
19.35
20.09
15.20
7.55
1.00
-1.67
-0.73
1.37
1.10
-2.77
-8.87
-13.44
-13.65
-9.04
-2.17
3.02
4.37
1.99
-1.67
-4.08
-4.35
-3.73
-4.27
-6.62
-9.66
-10.11
-5.52
4.34
16.55
26.57
30.60
27.47
19.87
12.00
8.16
9.56
14.27
18.17
17.67
11.82
2.39
-6.68
-12.29
-12.99
-9.92
-5.30
-1.39
0.57
0.93
0.34
-0.16
-0.03
0.81
1.62
1.24
-1.09
-5.56
-11.03
-16.02
-18.70
-18.44
-15.65
-11.41
-6.98
-3.00
0.47
4.18
8.56
14.17
20.73
27.66
33.97
37.63
36.63
29.20
15.66
-1.48
-17.45
-27.65
-29.78
-24.68
-16.22
-8.59
-4.62
-3.83
-3.91
-2.08
2.27
7.58
10.89
9.87
4.87
-1.61
-6.20
-6.82
-3.32
2.21
7.36
10.58
11.85
12.27
13.01
13.98
14.21
11.87
6.27
-1.92
-10.11
-15.49
-15.88
-11.46
-4.42
2.02
4.95
3.31
-2.28
-9.65
-16.86
-22.28
-25.21
-25.47
-23.06
-18.69
-13.26
-8.36
-5.31
-5.02
-6.96
-10.00
-12.52
-13.36
-12.31
-10.26
-8.25
-7.03
-6.77
-7.24
-7.99
-8.70
-8.78
-8.12
-6.21
-2.86
1.94
7.80
14.27
20.33
24.78
27.16
27.20
25.60
23.73
22.54
22.75
23.67
24.14
22.30
17.19
8.90
-0.62
-8.80
-13.26
-12.68
-7.49
0.26
7.46
11.70
11.76
8.10
2.28
-4.22
-9.96
-14.54
-17.48
-18.35
-16.55
-12.18
-6.12
0.11
4.69
7.08
7.43
6.89
6.65
6.88
7.09
6.09
3.32
-1.11
-6.11
-10.45
-12.89
-12.52
-9.04
-2.31
7.29
18.78
29.93
37.97
40.12
34.58
22.07
5.49
-10.34
-20.93
-23.98
-20.82
-15.09
-10.66
-9.58
-10.65
-10.99
-7.63
-0.47
7.91
13.81
14.44
10.18
3.85
-0.96
-2.79
-2.56
-3.18
-7.08
-13.79
-20.39
-22.78
-18.31
-7.60
5.08
14.37
16.33
10.44
0.24
-9.42
-14.48
-13.81
-8.89
-2.79
2.12
4.92
5.75
5.40
3.78
0.71
-3.87
-9.21
-13.66
-15.54
-13.94
-9.51
-3.52
2.02
6.11
8.38
9.20
9.41
9.78
11.15
13.78
17.38
20.52
21.75
19.92
14.97
8.05
0.48
-6.50
-12.77
-18.25
-23.05
-26.20
-26.23
-22.33
-15.04
-6.88
-0.65
2.07
1.94
1.11
1.62
3.88
6.18
6.57
3.91
-0.90
-5.92
-9.35
-10.43
-9.74
-7.57
-4.37
-0.06
4.33
6.89
5.16
-1.50
-11.09
-19.48
-21.99
-16.83
-5.46
7.34
16.56
19.35
16.28
10.32
4.55
0.80
-1.59
-4.02
-7.24
-10.59
-12.03
-9.71
-3.20
5.60
13.95
18.94
19.55
16.80
13.16
11.42
12.93
17.31
22.16
24.76
22.59
15.11
3.89
-8.14
-17.26
-21.23
-19.03
-12.01
-2.64
5.95
11.52
12.94
10.02
4.03
-3.64
-11.21
-16.89
-19.27
-17.55
-11.88
-3.53
4.94
10.62
10.67
4.47
-6.06
-16.37
-21.41
-18.27
-7.62
6.00
17.18
21.85
19.57
13.07
6.20
1.64
-0.62
-2.41
-6.04
-11.74
-17.95
-21.53
-19.99
-13.46
-4.26
3.81
7.73
6.26
1.13
-4.14
-5.76
-1.75
6.64
15.65
20.57
18.29
8.99
-3.75
-14.92
-20.98
-21.07
-17.64
-13.47
-10.08
-6.00
1.47
13.87
29.23
42.23
47.29
41.45
27.04
9.82
-3.60
-9.16
-6.90
0.07
7.14
11.41
11.66
9.14
5.70
2.97
1.63
0.79
-0.96
-5.20
-12.41
-21.76
-31.09
-38.01
-41.00
-39.58
-34.59
-26.95
-18.07
-8.63
0.21
7.26
11.63
12.57
10.71
7.11
3.64
1.42
1.03
1.89
3.19
4.35
5.02
5.72
6.34
6.74
6.08
3.89
0.20
-4.12
-7.16
-7.31
-3.75
2.54
9.40
14.37
15.83
13.54
8.24
1.57
-4.99
-9.87
-12.48
-12.67
-10.73
-7.61
-4.03
-1.17
0.36
0.05
-1.73
-4.21
-5.88
-5.76
-4.02
-1.64
-0.38
-1.27
-3.81
-6.03
-5.67
-1.94
4.09
9.62
12.20
11.23
8.53
6.91
8.01
11.21
13.87
13.51
9.62
4.75
2.31
4.90
12.17
21.02
27.87
29.96
26.81
19.64
10.72
1.92
-5.39
-10.15
-11.85
-10.21
-6.43
-2.77
-1.86
-5.33
-12.82
-22.13
-30.25
-34.94
-35.33
-32.04
-26.22
-18.91
-10.72
-2.21
5.54
11.29
13.74
12.95
9.90
6.92
5.84
7.14
10.03
12.48
13.01
10.75
6.29
0.43
-5.96
-12.43
-18.51
-23.07
-24.79
-22.08
-14.79
-4.05
7.40
16.86
22.25
23.09
20.42
16.01
11.84
9.09
7.86
7.43
6.48
4.20
0.53
-3.43
-6.69
-8.36
-8.99
-10.04
-12.65
-16.77
-20.37
-20.89
-16.03
-6.14
6.41
17.64
24.36
25.31
21.14
14.26
6.72
0.29
-4.26
-6.05
-4.54
0.50
7.99
15.15
18.62
16.00
7.45
-4.20
-14.81
-21.29
-23.45
-23.44
-24.60
-28.37
-33.98
-38.95
-41.33
-40.69
-37.98
-34.34
-29.25
-21.16
-8.45
7.81
23.99
35.23
37.95
32.44
22.07
12.19
6.99
8.04
13.67
20.43
24.56
23.56
17.76
9.90
4.41
4.74
11.46
20.81
26.64
24.20
12.71
-2.97
-15.51
-19.09
-13.31
-2.90
5.34
7.09
2.98
-2.53
-4.02
0.66
9.26
16.89
19.40
16.03
9.09
2.50
-1.55
-2.92
-3.01
-2.94
-2.28
0.15
4.79
9.95
12.56
9.70
1.53
-8.80
-16.62
-18.63
-15.43
-10.51
-7.99
-9.27
-12.40
-13.32
-9.41
-1.55
6.07
8.39
3.63
-5.73
-14.28
-17.11
-12.73
-3.93
4.03
6.94
3.40
-4.30
-12.28
-17.46
-18.60
-16.24
-11.18
-4.03
5.19
15.61
25.64
33.07
36.58
36.73
35.37
34.28
33.46
31.56
26.40
17.08
4.79
-7.17
-15.17
-17.79
-15.83
-12.14
-9.35
-8.51
-8.49
-7.62
-5.23
-2.16
-0.46
-1.38
-4.92
-9.53
-13.92
-18.41
-24.78
-34.91
-48.15
-61.21
-68.52
-66.15
-54.20
-37.31
-22.16
-13.77
-13.07
-16.19
-17.84
-13.85
-4.05
8.68
20.89
30.29
36.90
41.70
45.30
46.17
42.01
30.96
13.94
-4.53
-18.10
-21.18
-12.81
2.78
16.99
21.73
13.64
-4.03
-22.20
-31.37
-26.29
-9.16
12.03
27.81
32.91
28.71
21.35
17.96
21.56
30.30
38.55
40.89
35.28
24.16
13.15
7.65
10.56
20.53
33.63
45.25
52.57
55.27
54.57
52.29
49.01
44.88
39.39
32.53
24.82
16.49
7.32
-3.85
-17.78
-34.15
-50.45
-63.46
-70.77
-71.97
-69.27
-65.19
-61.61
-58.18
-53.73
-47.34
-39.84
-34.02
-32.63
-37.30
-46.69
-57.34
-64.68
-65.33
-57.76
-43.06
-24.10
-3.95
14.23
28.66
38.08
41.83
39.51
31.08
18.07
2.84
-10.76
-19.25
-20.07
-12.90
0.25
16.05
30.61
41.41
47.09
47.83
43.86
35.96
25.58
14.90
7.22
5.29
10.64
21.82
35.09
45.14
47.89
41.76
28.14
10.79
-6.61
-20.94
-30.63
-34.63
-32.88
-26.49
-17.64
-9.85
-5.63
-5.87
-9.03
-12.46
-13.88
-12.88
-10.87
-9.19
-8.32
-6.91
-3.80
1.22
6.42
9.17
7.78
2.41
-4.52
-10.23
-12.26
-9.89
-3.95
3.75
10.55
14.25
13.67
9.75
4.40
0.32
-1.21
-0.67
0.54
0.98
0.99
1.83
4.74
9.23
13.73
15.95
14.39
9.76
4.00
-0.03
-0.74
2.19
7.38
12.78
15.95
15.06
10.12
2.46
-5.01
-9.63
-10.09
-6.87
-1.74
3.21
6.28
6.93
4.81
0.63
-4.37
-8.21
-8.73
-5.34
0.76
6.66
9.70
8.41
4.08
-0.33
-2.00
0.47
6.12
12.71
17.23
17.38
11.62
0.47
-13.97
-28.65
-40.39
-47.55
-50.30
-50.08
-47.80
-43.54
-36.48
-26.33
-14.86
-4.87
0.91
2.12
0.81
0.60
4.31
12.06
21.84
30.50
36.24
38.24
36.66
31.49
22.68
10.56
-3.02
-14.94
-22.36
-23.25
-18.04
-8.46
2.98
13.61
21.10
23.63
20.38
11.63
0.26
-9.63
-13.83
-10.40
-1.19
9.02
14.67
12.68
3.25
-9.83
-21.90
-29.44
-30.86
-26.91
-19.18
-10.22
-2.50
1.18
-1.10
-9.93
-23.11
-35.67
-41.94
-37.45
-21.88
1.15
25.27
44.58
55.26
55.97
47.60
31.46
10.17
-12.52
-31.00
-39.86
-35.74
-20.13
0.56
17.95
25.06
20.39
7.67
-6.54
-16.57
-20.42
-19.56
-16.99
-14.33
-11.56
-7.19
-0.46
8.00
16.26
22.20
25.32
26.50
27.54
29.05
30.24
29.17
24.25
16.33
8.32
4.79
8.68
19.91
34.25
45.52
48.17
40.08
23.80
4.75
-10.92
-19.84
-22.14
-20.99
-20.17
-21.99
-26.22
-30.39
-32.20
-30.28
-25.59
-20.09
-15.76
-13.46
-12.21
-10.51
-6.98
-1.58
4.80
10.54
14.15
15.12
13.11
8.54
1.86
-5.67
-12.51
-16.71
-16.75
-12.36
-4.32
5.16
14.19
20.89
24.54
24.93
22.12
16.20
7.25
-3.55
-14.60
-23.25
-27.49
-26.07
-19.34
-9.29
1.31
9.25
12.56
10.75
5.65
0.35
-1.79
1.38
9.27
19.17
27.12
30.47
28.54
23.20
17.32
13.28
12.09
12.99
14.88
16.06
15.27
11.41
3.96
-6.37
-17.61
-26.61
-30.81
-28.68
-21.00
-9.88
1.91
12.05
18.94
21.15
17.95
9.16
-3.54
-17.33
-28.45
-34.07
-33.57
-28.69
-22.98
-19.40
-19.57
-23.02
-28.16
-32.97
-36.01
-36.67
-34.42
-29.40
-21.67
-11.87
-1.23
8.40
14.99
17.29
14.66
7.93
-1.18
-10.07
-16.45
-18.96
-17.61
-14.00
-9.91
-6.69
-3.82
0.10
6.79
16.70
28.45
39.18
45.41
45.05
37.88
26.14
13.49
3.95
0.46
3.49
11.01
18.48
21.30
16.79
6.07
-6.48
-15.28
-16.25
-9.24
2.57
13.93
20.77
21.38
16.65
9.04
0.81
-6.28
-11.04
-12.08
-8.45
-0.12
10.90
20.93
26.25
24.56
16.88
6.28
-3.04
-8.28
-8.89
-6.56
-3.79
-2.33
-2.95
-5.14
-8.01
-10.71
-12.76
-14.10
-14.65
-14.54
-13.68
-12.36
-10.86
-9.80
-9.73
-10.67
-12.22
-13.57
-14.24
-14.09
-13.85
-13.76
-13.72
-12.95
-10.16
-5.09
1.83
9.14
15.80
21.26
25.93
29.90
32.48
32.75
29.99
24.98
19.31
14.68
11.57
8.74
4.45
-2.37
-10.65
-18.24
-22.54
-22.55
-19.12
-14.31
-10.39
-8.33
-8.18
-8.69
-9.01
-8.37
-6.87
-4.83
-2.33
0.73
5.06
10.79
17.35
22.71
24.90
22.54
16.35
9.26
4.63
4.77
8.78
13.56
15.28
12.07
4.91
-3.29
-9.15
-11.60
-11.31
-10.85
-12.19
-15.86
-20.63
-24.32
-25.38
-23.02
-18.33
-12.66
-7.90
-4.84
-3.47
-3.08
-2.21
0.01
4.25
10.05
16.98
24.17
31.07
37.06
41.01
41.72
37.75
28.87
16.07
2.02
-10.12
-17.70
-19.04
-14.49
-5.36
5.30
14.20
18.06
15.21
6.09
-6.74
-19.14
-27.90
-31.00
-29.24
-24.61
-19.82
-16.65
-15.61
-16.53
-18.35
-20.52
-21.96
-21.59
-18.43
-12.24
-4.35
2.92
6.67
5.33
-0.89
-9.35
-16.75
-20.43
-19.82
-16.77
-13.96
-13.53
-15.45
-17.95
-18.53
-15.86
-10.28
-2.87
4.76
12.16
19.07
25.68
31.44
35.39
36.39
33.61
27.62
19.58
11.54
5.75
3.74
5.64
9.60
12.71
11.91
6.36
-2.81
-12.47
-19.66
-22.59
-21.30
-16.94
-10.69
-3.41
4.60
12.64
19.77
24.90
27.28
26.98
24.63
21.48
17.95
14.44
11.05
7.90
4.75
0.91
-4.26
-11.09
-18.45
-24.10
-25.41
-21.30
-12.99
-3.45
3.45
5.57
3.26
-0.40
-1.78
1.48
9.17
18.49
25.74
28.18
25.79
20.28
14.19
8.93
4.36
-1.01
-8.46
-17.19
-25.07
-28.91
-26.85
-19.45
-10.10
-3.25
-1.91
-6.24
-12.81
-16.86
-14.07
-3.04
13.88
32.41
47.80
57.16
59.58
56.36
48.97
38.74
26.42
12.86
-0.58
-12.37
-20.91
-26.17
-29.43
-32.92
-38.25
-45.00
-50.79
-52.07
-46.61
-34.42
-18.66
-3.39
8.12
14.96
18.57
20.92
23.53
25.99
27.08
25.48
21.14
15.52
10.38
7.19
5.61
4.28
0.88
-5.90
-16.02
-27.63
-37.45
-42.58
-41.09
-33.63
-23.04
-13.60
-8.90
-10.22
-16.14
-23.37
-29.20
-32.24
-33.56
-35.20
-39.06
-45.63
-53.71
-61.22
-65.28
-63.99
-55.84
-41.00
-20.73
2.39
24.80
43.10
54.54
58.76
57.04
52.32
47.25
43.48
40.71
37.04
30.37
19.13
3.99
-12.98
-28.07
-38.01
-40.98
-37.27
-29.30
-20.46
-13.89
-10.95
-11.03
-11.06
-7.38
2.51
18.49
37.00
52.80
60.79
58.97
48.71
34.41
21.33
13.23
11.77
16.00
23.86
32.92
41.89
50.07
57.52
64.25
69.47
71.87
69.30
60.41
44.92
24.80
3.53
-14.49
-26.07
-30.32
-28.74
-24.94
-22.57
-24.47
-31.02
-40.77
-50.98
-58.89
-63.21
-63.90
-62.50
-60.68
-59.90
-60.45
-61.54
-61.51
-58.34
-50.63
-37.58
-20.38
-1.44
16.02
29.40
37.58
40.87
41.11
40.16
39.74
40.23
41.45
42.42
41.66
38.04
31.20
22.26
12.82
4.99
-0.06
-2.51
-3.90
-6.28
-10.73
-17.35
-24.57
-30.70
-34.03
-33.75
-29.89
-23.10
-14.72
-5.91
2.15
9.49
16.40
23.12
28.93
31.75
29.50
21.44
10.05
-0.31
-4.96
-1.75
7.08
16.18
19.47
14.20
1.84
-12.48
-22.91
-25.78
-21.01
-11.65
-1.02
8.15
15.19
20.00
22.61
22.54
19.06
12.60
4.84
-1.05
-2.43
1.95
10.73
20.47
27.31
28.93
25.75
20.04
15.10
12.69
12.74
13.48
12.54
8.58
1.27
-8.30
-18.80
-28.37
-35.30
-37.81
-34.66
-26.17
-14.32
-2.65
5.79
9.09
7.73
3.70
-1.11
-5.50
-9.97
-14.78
-19.62
-22.89
-23.00
-19.13
-12.42
-5.10
0.89
4.79
7.61
10.28
13.24
15.49
15.47
12.64
7.75
3.18
0.75
1.18
3.03
3.85
1.93
-2.56
-7.72
-11.42
-12.21
-10.92
-9.40
-9.29
-10.93
-12.98
-14.08
-13.54
-12.39
-12.02
-13.46
-16.15
-18.57
-19.20
-17.72
-15.51
-14.12
-14.80
-16.75
-17.97
-16.36
-10.59
-1.56
8.87
17.93
23.84
25.79
24.32
21.05
17.87
16.78
18.49
22.80
27.83
31.37
31.24
26.79
19.00
10.18
3.41
0.35
0.93
3.16
4.98
5.00
3.91
3.89
6.68
12.57
18.91
22.00
18.27
7.15
-8.36
-23.02
-31.41
-31.35
-24.12
-14.35
-6.92
-4.89
-8.45
-14.79
-20.47
-22.60
-20.63
-15.33
-8.78
-2.54
2.26
4.82
4.70
1.40
-4.55
-12.26
-19.38
-23.73
-23.50
-18.22
-9.40
0.61
8.91
13.86
14.84
12.99
10.09
8.19
9.03
12.84
19.01
25.26
29.29
29.23
24.59
16.64
7.59
-0.17
-5.96
-9.82
-12.84
-15.37
-16.96
-16.42
-12.90
-7.01
0.15
6.80
12.04
15.07
15.29
12.24
6.04
-1.49
-7.18
-7.02
0.79
14.74
29.57
39.02
39.22
30.23
16.26
2.31
-7.77
-13.20
-15.19
-15.86
-16.77
-18.18
-20.15
-21.90
-23.13
-23.38
-22.72
-21.41
-19.64
-17.56
-14.53
-10.20
-4.46
1.60
6.46
8.77
8.69
7.82
7.80
9.77
12.75
14.92
14.65
11.83
7.85
4.28
1.99
0.02
-2.72
-7.01
-11.87
-15.01
-14.15
-8.39
0.58
9.54
14.37
12.71
4.76
-6.04
-14.97
-18.20
-14.33
-5.54
4.11
10.21
10.56
5.84
-0.91
-5.91
-7.03
-4.25
0.05
3.02
2.73
-0.68
-5.26
-8.54
-8.50
-4.92
1.28
7.82
12.55
14.45
13.37
10.23
6.17
2.75
1.01
1.83
5.10
9.79
14.16
16.33
15.26
11.23
5.90
1.28
-1.41
-2.19
-2.53
-3.91
-7.55
-13.10
-19.23
-23.95
-25.95
-24.53
-19.53
-11.55
-1.22
9.84
19.86
26.61
28.41
25.18
18.57
11.51
6.31
4.30
4.25
3.96
1.59
-3.05
-8.06
-11.00
-10.41
-7.67
-5.79
-7.70
-14.02
-22.57
-29.85
-32.84
-31.34
-27.25
-23.59
-21.60
-20.59
-18.13
-11.92
-1.80
10.68
22.35
30.80
34.53
33.59
28.99
22.47
16.20
11.82
10.65
12.34
15.50
17.79
17.53
14.12
8.24
1.98
-2.92
-5.08
-4.65
-2.40
0.36
2.41
3.11
2.04
0.04
-1.85
-2.09
-0.04
3.79
7.75
9.75
8.74
4.65
-1.08
-7.05
-11.81
-14.83
-16.18
-16.07
-14.99
-12.92
-10.38
-7.89
-6.96
-8.69
-13.71
-21.57
-30.37
-37.94
-41.77
-40.71
-34.60
-24.68
-12.92
-1.01
9.18
16.63
20.10
19.12
13.84
6.00
-1.64
-6.13
-5.53
-0.11
8.38
16.74
22.70
24.96
23.80
20.57
16.37
12.37
9.13
7.38
7.33
9.11
12.21
15.78
18.92
21.02
22.18
22.51
22.48
22.05
21.10
19.67
17.57
14.90
11.11
5.78
-1.42
-9.68
-17.45
-22.72
-24.47
-23.66
-22.37
-23.15
-26.42
-30.68
-32.96
-30.82
-24.64
-17.16
-12.20
-11.47
-13.84
-15.58
-13.12
-5.49
4.72
12.92
15.29
10.73
1.78
-7.30
-12.46
-11.83
-6.79
-0.34
4.15
5.02
2.75
-0.31
-1.51
0.82
6.43
13.18
18.53
20.24
18.15
13.56
8.62
5.15
3.52
3.30
3.36
3.52
4.06
5.84
9.26
13.69
17.69
19.26
17.28
11.67
3.78
-4.47
-11.24
-15.04
-15.56
-12.94
-8.14
-2.37
2.82
5.82
5.52
1.95
-3.62
-9.15
-12.21
-11.66
-7.59
-1.93
3.12
5.93
5.97
4.11
1.43
-0.99
-3.17
-4.92
-6.14
-6.17
-4.32
-0.73
3.77
7.40
9.06
8.42
6.44
4.49
3.12
2.08
0.39
-2.10
-4.87
-6.60
-6.66
-5.07
-2.94
-1.71
-1.79
-3.06
-4.41
-5.13
-4.85
-3.73
-2.05
-0.03
2.12
4.16
5.32
5.26
3.87
2.22
1.36
1.85
3.39
4.67
4.79
3.38
1.31
-0.25
-0.69
-0.01
1.03
2.07
3.01
4.26
5.32
5.40
3.37
-1.40
-8.01
-14.73
-19.36
-20.78
-19.11
-15.56
-11.46
-7.74
-4.69
-1.95
0.70
3.56
6.33
8.66
10.08
10.09
8.72
6.18
3.08
-0.24
-3.55
-6.90
-10.26
-13.27
-15.03
-14.61
-11.72
-6.71
-1.20
3.28
5.94
6.89
7.15
7.58
9.01
11.34
14.01
16.28
17.56
17.84
17.15
16.17
15.08
14.08
12.82
11.00
8.52
5.52
2.43
-0.40
-2.68
-4.51
-5.95
-7.25
-8.39
-9.49
-10.80
-12.63
-15.11
-17.46
-18.42
-16.62
-11.61
-4.39
2.84
7.36
7.53
3.34
-3.50
-10.59
-15.53
-17.01
-15.04
-10.56
-5.21
-0.23
3.58
6.16
7.88
9.10
9.93
10.00
8.95
6.66
3.80
1.34
0.37
1.36
3.90
6.76
8.30
7.53
4.48
0.52
-2.70
-3.87
-2.86
-0.67
1.37
2.23
2.32
2.45
3.67
5.70
7.35
6.98
3.86
-0.96
-5.35
-7.19
-5.96
-3.15
-1.43
-2.79
-7.11
-12.19
-14.74
-12.68
-6.28
1.86
8.38
11.06
9.65
5.57
0.55
-3.71
-6.52
-7.50
-6.50
-3.50
1.35
6.65
10.56
11.08
7.46
0.91
-5.78
-9.71
-9.59
-6.05
-1.75
0.66
-0.28
-3.83
-7.89
-9.91
-8.67
-4.92
-0.51
2.37
2.76
1.19
-1.02
-2.31
-1.78
0.80
4.66
8.68
11.39
12.13
11.06
9.26
8.17
8.48
10.13
12.11
13.26
12.77
10.73
8.00
5.53
4.05
3.24
2.83
2.50
2.49
3.00
3.78
4.15
3.04
0.32
-3.53
-7.04
-8.82
-8.41
-6.48
-4.63
-4.28
-6.01
-8.96
-12.01
-13.92
-14.24
-13.24
-11.14
-8.37
-5.48
-3.69
-3.99
-6.82
-11.17
-14.90
-15.64
-12.14
-5.46
1.96
6.99
8.31
6.52
3.91
2.76
3.73
5.90
6.92
5.08
0.05
-6.52
-12.28
-14.88
-13.28
-8.15
-1.06
5.39
9.36
9.99
7.81
4.27
0.98
-0.66
-0.41
1.66
4.91
8.96
13.21
16.85
18.86
18.12
14.39
8.08
1.01
-5.08
-8.91
-10.20
-9.57
-7.48
-4.21
0.22
5.11
9.22
10.70
8.75
4.08
-1.44
-5.32
-6.28
-4.46
-1.71
0.26
0.63
-0.28
-1.26
-1.55
-0.74
0.50
1.84
3.27
4.85
6.76
8.45
9.52
9.32
8.09
6.43
4.92
3.94
3.03
1.91
0.02
-2.43
-4.79
-6.11
-5.58
-3.04
1.11
5.58
9.01
10.01
8.41
4.74
0.50
-2.62
-3.91
-3.65
-3.31
-4.16
-7.21
-12.16
-17.95
-23.16
-26.17
-26.23
-22.93
-17.36
-11.11
-6.03
-3.28
-2.76
-3.41
-3.41
-1.94
1.24
4.95
7.62
8.08
6.13
2.80
-0.73
-3.11
-4.39
-4.80
-4.96
-4.51
-2.42
2.33
10.02
18.74
25.68
27.78
24.09
16.29
8.03
2.97
2.51
5.60
8.92
9.30
4.79
-3.85
-13.84
-21.27
-22.44
-16.12
-4.07
9.12
18.53
20.91
16.67
9.25
2.73
-0.31
-0.83
-1.39
-4.87
-11.27
-18.29
-22.50
-21.55
-16.21
-9.18
-3.76
-1.79
-3.04
-5.58
-7.20
-6.38
-2.74
2.72
8.54
12.65
13.68
10.93
4.74
-3.34
-11.14
-16.46
-18.20
-16.01
-11.16
-5.40
-0.46
2.65
4.09
4.32
4.42
4.71
5.37
6.16
6.73
7.23
7.76
8.70
9.95
11.43
12.35
12.27
11.05
9.12
7.52
7.04
7.96
9.48
10.52
9.94
7.58
4.28
1.31
0.16
1.02
3.54
6.20
7.36
6.00
1.90
-3.99
-10.39
-15.65
-18.96
-19.98
-19.21
-17.49
-15.45
-13.70
-12.11
-10.82
-9.74
-9.34
-9.76
-10.82
-12.05
-12.48
-11.59
-9.33
-6.53
-4.06
-2.99
-3.40
-4.58
-5.33
-4.38
-1.61
2.52
6.63
9.46
9.99
8.27
5.17
1.77
-0.46
-0.92
0.68
3.50
6.26
7.79
7.27
4.90
1.46
-1.47
-2.79
-1.51
2.12
7.15
12.35
16.77
20.29
22.86
24.87
25.83
25.00
21.39
14.78
6.39
-1.50
-6.44
-7.28
-4.49
-0.62
1.61
0.81
-2.89
-7.63
-11.35
