1638270808.00
64.000000
-0.00
-0.00
-0.00
-0.00
-0.00
-0.00
-0.00
-0.00
-0.00
-0.00
0.00
0.01
0.01
-0.00
-0.03
-0.05
-0.05
0.00
0.13
0.36
0.66
1.01
1.37
1.72
2.06
2.40
2.79
3.24
3.80
4.42
5.07
5.68
6.23
6.74
7.26
7.86
8.61
9.60
10.75
11.95
13.09
14.11
15.06
16.11
17.46
19.26
21.74
24.71
27.89
30.99
33.84
36.52
39.35
42.78
47.12
52.78
59.40
66.46
73.39
79.83
85.86
91.98
98.92
107.25
117.52
129.24
141.62
153.76
165.09
175.65
186.10
197.83
209.58
223.68
240.72
260.82
282.73
303.50
318.82
324.08
315.95
293.63
259.56
217.60
172.06
126.12
81.25
37.68
-4.69
-45.55
-84.04
-118.74
-148.92
-174.25
-194.72
-210.61
-221.92
-228.41
-229.70
-225.76
-216.91
-204.38
-189.71
-174.45
-159.82
-146.41
-134.28
-123.16
-112.82
-102.71
-92.88
-83.64
-75.36
-68.34
-62.55
-57.71
-53.41
-49.26
-44.98
-40.64
-36.40
-32.52
-29.21
-26.53
-24.43
-22.77
-21.38
-20.13
-18.96
-17.89
-16.90
-15.98
-15.08
-14.13
-13.09
-11.94
-10.75
-9.58
-8.55
-7.75
-7.24
-7.05
-7.13
-7.41
-7.75
-8.02
-8.10
-7.93
-7.50
-6.85
-6.12
-5.45
-5.06
-5.13
-5.81
-7.18
-9.18
-11.69
-14.44
-17.11
-19.32
-20.71
-21.00
-19.95
-17.51
-13.73
-8.85
-3.21
2.68
8.36
13.32
17.17
19.62
20.48
19.77
17.61
14.31
10.21
5.70
1.19
-2.97
-6.51
-9.33
-11.31
-12.53
-13.09
-13.18
-13.00
-12.76
-12.64
-12.81
-13.40
-14.43
-15.86
-17.53
-19.26
-20.82
-22.00
-22.74
-22.94
-22.71
-22.20
-21.61
-21.10
-20.79
-20.79
-21.12
-21.90
-23.20
-25.11
-27.62
-30.61
-33.83
-36.84
-39.26
-40.82
-41.44
-41.34
-40.86
-40.43
-40.28
-40.42
-40.48
-40.07
-38.87
-36.97
-34.87
-33.45
-33.53
-35.47
-39.09
-43.57
-47.96
-51.51
-54.27
-57.19
-61.75
-69.42
-80.90
-95.90
-112.89
-130.08
-146.04
-160.40
-173.99
-188.50
-205.95
-227.70
-254.14
-284.40
-315.95
-344.85
-365.91
-373.84
-364.95
-338.91
-299.26
-253.04
-207.88
-169.54
-139.85
-117.00
-97.58
-78.98
-60.82
-44.41
-31.41
-21.94
-14.40
-6.37
4.03
16.88
30.91
43.92
54.16
60.95
65.17
69.10
75.17
85.64
101.28
121.20
142.95
163.24
179.30
189.34
192.83
190.24
183.20
173.39
162.58
151.62
140.11
127.16
112.14
96.11
81.63
72.17
69.34
72.16
77.11
79.78
77.63
70.61
61.57
53.50
48.51
46.38
45.83
45.57
45.23
45.49
47.04
50.40
55.01
59.72
63.05
63.74
61.15
55.27
47.54
39.50
32.63
27.66
24.32
22.06
20.32
18.93
17.26
14.59
9.70
1.88
-7.89
-17.49
-23.57
-24.33
-19.64
-12.19
-5.29
-1.45
-0.78
-1.28
-0.48
3.32
9.48
16.32
21.33
22.96
20.94
16.67
12.65
10.91
13.12
18.94
26.86
34.59
40.49
43.64
43.86
41.43
36.29
28.87
19.82
10.63
2.84
-2.88
-6.64
-9.66
-12.47
-14.87
-15.63
-13.61
-9.01
-3.17
1.99
5.71
8.01
10.08
12.47
15.28
18.17
21.13
24.56
28.15
30.93
30.65
25.72
16.22
5.18
-3.01
-4.88
0.54
10.47
20.42
25.70
24.34
17.10
6.89
-2.54
-8.48
-9.64
-7.18
-3.39
-1.02
-1.69
-4.95
-8.81
-10.88
-10.62
-9.36
-10.14
-15.25
-24.19
-32.98
-35.71
-27.62
-7.72
19.81
47.63
68.13
77.17
75.47
67.26
57.87
50.51
45.42
39.97
31.73
20.10
7.35
-2.68
-7.30
-6.49
-3.79
-3.39
-8.09
-17.32
-27.76
-35.29
-37.24
-34.00
-28.11
-23.03
-20.98
-22.27
-25.70
-29.61
-32.64
-34.13
-33.98
-31.89
-27.75
-21.70
-14.48
-7.90
-3.99
-4.39
-9.08
-16.24
-21.99
-22.32
-14.97
-0.91
15.66
29.28
35.28
32.74
24.38
15.26
9.82
10.09
15.17
22.53
30.31
37.29
42.96
46.29
45.39
38.49
25.40
8.62
-7.59
-19.17
-24.21
-23.55
-19.59
-15.13
-11.89
-10.53
-10.98
-13.51
-17.78
-22.69
-26.35
-26.95
-23.97
-18.53
-13.31
-10.63
-11.14
-13.91
-17.28
-19.99
-21.48
-22.04
-21.29
-18.64
-13.69
-7.12
-0.89
3.22
4.33
3.84
4.50
8.70
16.36
24.65
30.11
30.35
26.40
21.55
20.09
23.97
32.31
41.89
49.39
53.46
54.47
54.26
53.89
53.24
50.94
45.75
37.41
26.72
15.69
5.94
-1.37
-6.54
-10.36
-13.98
-18.25
-22.89
-26.92
-28.74
-27.81
-24.21
-19.25
-14.35
-10.16
-6.07
-0.29
8.09
18.91
30.14
38.88
42.47
39.61
31.18
19.25
6.88
-3.62
-10.52
-13.72
-14.03
-12.79
-11.75
-12.43
-16.14
-23.45
-34.72
-48.68
-62.44
-71.65
-72.25
-62.70
-45.02
-25.36
-10.98
-6.66
-11.89
-21.05
-26.61
-23.07
-10.42
6.72
21.81
30.37
32.12
30.23
28.64
28.55
28.37
24.63
15.34
1.50
-12.59
-21.55
-22.06
-14.41
-2.43
8.94
15.62
16.64
13.67
9.88
7.95
8.61
11.18
13.88
15.43
15.63
15.09
14.47
14.01
13.48
12.05
9.26
5.16
0.47
-3.74
-6.38
-6.51
-4.60
-1.88
-0.19
-0.74
-3.68
-7.88
-11.60
-14.08
-15.67
-18.13
-22.69
-29.69
-37.39
-43.16
-44.83
-41.90
-35.95
-28.90
-22.70
-17.88
-13.97
-9.88
-5.39
-1.38
0.51
-2.02
-10.03
-22.85
-36.98
-47.50
-49.64
-40.92
-22.96
-0.41
20.86
36.92
47.37
54.83
62.05
69.00
72.81
69.03
56.03
36.71
18.48
9.12
12.45
25.78
40.90
49.16
45.05
29.32
7.28
-14.19
-30.61
-40.89
-46.09
-48.02
-47.13
-43.77
-38.28
-32.26
-27.38
-24.22
-21.60
-16.93
-8.48
3.57
15.90
24.31
25.53
18.90
7.20
-5.03
-12.93
-13.95
-7.59
4.18
18.50
32.41
43.37
50.73
54.73
56.53
56.87
55.98
53.02
47.32
39.72
32.26
27.95
28.43
33.53
40.48
45.45
45.20
38.30
25.88
10.60
-3.61
-13.74
-17.79
-15.85
-10.39
-5.30
-5.07
-11.93
-25.42
-41.69
-55.99
-64.69
-66.99
-65.33
-62.66
-61.28
-61.26
-61.65
-60.81
-57.86
-52.66
-44.89
-34.45
-21.04
-5.46
10.78
25.22
35.67
41.06
41.42
38.11
32.06
24.62
16.29
8.21
1.73
-1.75
-1.39
1.76
5.77
7.77
6.04
0.28
-7.66
-14.76
-18.29
-16.55
-10.33
-1.64
6.52
12.20
14.66
14.23
12.27
9.64
7.26
5.35
4.34
4.46
5.72
7.81
9.48
9.69
6.99
0.99
-8.02
-18.07
-26.73
-31.55
-30.81
-24.94
-15.88
-7.00
-0.99
0.14
-3.38
-10.02
-17.38
-22.57
-23.85
-20.34
-12.72
-2.30
9.06
19.56
28.26
34.52
38.87
42.03
45.28
49.37
54.52
59.69
62.52
60.34
50.99
34.64
13.59
-7.48
-23.91
-33.04
-35.10
-32.96
-30.32
-30.68
-35.03
-42.66
-50.66
-55.72
-55.26
-48.22
-36.17
-22.36
-11.34
-6.07
-7.51
-14.02
-21.93
-27.84
-29.32
-25.76
-17.06
-3.96
13.15
32.73
51.92
66.75
73.03
69.14
56.44
39.78
24.94
16.65
16.60
23.01
32.41
40.51
44.42
42.38
34.65
22.44
8.41
-4.16
-12.39
-14.26
-10.57
-3.88
1.60
2.04
-4.51
-17.51
-33.69
-48.94
-58.94
-61.67
-57.72
-50.44
-43.92
-40.85
-40.92
-40.48
-35.20
-22.23
-3.21
16.37
29.65
32.05
23.88
9.55
-4.43
-13.32
-15.31
-11.62
-4.38
4.88
14.93
24.78
32.32
35.33
31.88
22.29
9.01
-4.30
-14.14
-19.39
-20.88
-21.16
-22.54
-26.11
-30.47
-32.56
-29.11
-17.61
1.61
25.61
49.18
66.66
73.84
69.54
56.07
37.82
20.37
8.26
3.80
6.50
13.41
20.81
25.06
24.22
17.72
6.87
-6.68
-21.12
-34.26
-44.01
-47.84
-44.68
-34.74
-21.05
-7.51
1.65
4.50
1.77
-3.69
-8.31
-9.93
-8.01
-3.67
1.41
5.81
9.03
11.81
14.87
19.21
25.02
31.83
38.13
41.85
41.00
34.50
22.90
7.73
-8.07
-21.54
-30.64
-34.75
-34.78
-32.14
-28.73
-25.31
-22.32
-19.33
-16.23
-13.62
-12.91
-15.35
-20.86
-28.08
-34.24
-37.00
-35.40
-30.55
-25.05
-21.10
-20.21
-22.02
-25.56
-29.04
-30.85
-29.28
-23.03
-11.59
4.32
21.46
35.64
42.97
42.26
35.47
26.92
21.32
21.10
26.31
34.50
42.91
49.70
54.24
56.67
56.99
55.26
51.22
45.53
38.83
31.55
23.05
11.88
-2.61
-19.78
-36.45
-48.99
-54.27
-51.66
-42.97
-31.45
-20.58
-12.06
-6.51
-3.28
-2.02
-2.22
-3.27
-3.99
-2.70
1.10
6.67
11.50
13.40
11.61
7.83
5.47
7.34
14.47
24.74
35.14
42.90
47.13
48.33
47.23
43.79
36.78
25.84
12.21
-0.84
-10.02
-13.83
-13.75
-13.75
-17.13
-24.95
-34.63
-42.40
-45.30
-43.84
-41.51
-42.49
-49.50
-61.31
-73.93
-81.95
-81.75
-72.91
-58.10
-41.37
-25.48
-11.73
0.53
12.25
23.49
33.21
39.93
42.74
41.60
37.76
32.76
28.40
25.66
25.00
26.04
27.73
29.14
29.51
29.46
30.16
32.91
37.68
42.31
43.50
38.24
26.36
10.20
-5.67
-17.23
-22.68
-23.15
-21.89
-21.64
-23.83
-27.67
-31.55
-34.09
-35.16
-35.32
-35.01
-34.39
-32.70
-29.81
-25.86
-21.89
-18.53
-15.45
-11.10
-3.44
8.11
22.21
35.05
42.47
42.26
35.40
25.71
17.32
12.77
11.23
10.45
7.90
3.31
-0.99
-1.57
4.01
14.79
27.23
36.02
37.71
31.81
21.63
12.28
7.83
9.48
14.25
17.46
14.72
4.46
-11.14
-27.41
-39.45
-45.04
-44.72
-41.66
-39.18
-39.07
-40.63
-41.24
-38.49
-31.44
-21.74
-11.89
-4.13
1.25
5.64
10.80
17.38
23.61
27.19
26.38
22.19
17.46
15.70
18.53
24.35
29.69
30.82
26.91
19.94
13.47
10.08
9.66
9.62
6.18
-2.54
-15.62
-28.55
-35.96
-34.01
-22.59
-5.98
9.66
18.69
19.50
14.14
7.01
1.71
-1.24
-3.77
-8.74
-16.65
-25.31
-29.94
-26.76
-15.10
1.82
18.40
29.56
32.48
28.12
19.40
10.04
2.37
-2.99
-6.86
-10.91
-16.20
-23.62
-32.86
-43.25
-53.31
-61.19
-65.07
-63.13
-54.92
-40.97
-23.69
-5.74
10.53
23.54
32.71
37.68
38.71
35.47
28.33
18.12
7.06
-2.25
-7.03
-5.25
3.48
17.87
34.21
47.66
53.34
48.41
33.51
12.68
-7.78
-22.72
-29.65
-29.82
-26.39
-22.18
-18.51
-14.82
-10.25
-4.49
1.05
4.58
5.11
3.00
-0.49
-4.53
-8.34
-11.97
-15.03
-16.70
-15.52
-10.41
-1.59
9.38
19.86
28.24
34.19
39.26
45.68
55.22
68.13
82.73
96.64
106.79
110.69
106.34
92.53
69.64
40.00
7.98
-21.63
-44.59
-59.25
-66.67
-69.39
-69.77
-68.37
-64.50
-56.67
-45.09
-31.64
-19.64
-12.20
-10.72
-14.96
-23.12
-33.65
-44.70
-54.58
-60.90
-61.07
-53.40
-37.89
-17.48
3.41
19.66
28.26
29.24
25.41
20.79
18.31
18.65
19.65
18.39
12.52
2.27
-9.73
-20.08
-26.23
-28.00
-26.52
-23.48
-18.96
-11.85
-0.72
14.29
30.46
43.96
50.90
50.22
43.62
35.10
28.68
26.32
27.64
29.78
29.62
24.28
12.84
-3.44
-21.22
-36.28
-45.44
-47.61
-44.41
-38.28
-31.43
-24.58
-17.54
-10.51
-4.89
-2.96
-5.80
-12.36
-19.01
-21.97
-19.30
-12.28
-5.12
-1.61
-3.75
-10.01
-17.40
-23.01
-25.23
-23.75
-18.40
-8.83
5.47
22.96
40.09
51.77
54.33
47.38
34.40
20.93
10.75
4.20
-2.14
-12.17
-27.36
-44.93
-58.83
-63.43
-56.21
-39.43
-18.20
2.08
18.17
29.62
36.83
40.32
39.61
34.87
27.32
19.86
15.63
16.16
20.35
24.85
26.61
23.91
17.81
10.52
4.26
0.00
-2.66
-4.00
-4.07
-1.95
2.29
7.18
10.23
9.55
5.75
1.63
1.46
7.96
20.82
36.13
48.48
53.44
48.68
35.01
15.20
-6.55
-26.60
-41.92
-50.62
-52.32
-47.84
-39.22
-28.37
-17.09
-5.81
5.39
17.05
29.96
44.26
59.50
73.34
82.31
82.26
70.40
47.01
15.82
-17.05
-45.51
-65.15
-74.68
-74.75
-67.76
-56.75
-44.73
-34.68
-28.36
-26.20
-26.67
-27.87
-28.24
-27.46
-26.49
-25.98
-25.99
-25.66
-25.01
-24.67
-26.51
-31.80
-39.60
-47.09
-50.16
-45.95
-33.55
-14.94
6.61
27.87
46.61
61.66
72.00
77.50
78.18
75.51
71.64
69.02
69.28
72.10
75.62
76.42
71.85
60.36
42.78
21.78
0.38
-19.06
-36.05
-50.57
-63.17
-73.21
-79.62
-81.63
-79.16
-73.32
-65.51
-57.48
-49.95
-43.36
-37.50
-31.90
-25.93
-18.35
-8.38
4.32
18.32
31.67
42.12
48.59
51.65
52.94
54.31
56.02
57.20
55.60
49.46
38.40
23.64
7.76
-6.80
-17.96
-25.42
-29.52
-30.62
-29.10
-24.86
-18.28
-10.40
-3.66
-0.34
-2.19
-8.90
-18.10
-26.74
-32.13
-33.66
-31.84
-28.45
-24.61
-20.93
-17.23
-13.03
-7.95
-1.61
5.63
13.42
20.22
24.18
23.88
19.24
12.38
6.63
5.49
9.75
17.31
24.08
26.22
23.14
17.46
13.84
15.35
22.33
31.32
37.55
37.44
30.58
20.27
10.92
6.58
7.86
12.61
16.74
17.07
12.67
4.97
-3.01
-9.79
-15.36
-21.39
-28.71
-36.43
-41.94
-42.39
-37.63
-30.09
-24.25
-23.28
-27.52
-34.28
-39.47
-40.58
-37.07
-30.91
-23.67
-16.58
-9.77
-3.28
2.38
6.58
8.54
8.96
8.79
9.06
10.15
12.32
15.92
21.88
31.93
46.39
63.66
79.45
89.06
89.00
79.08
62.82
45.32
31.06
21.24
14.80
8.99
1.74
-6.84
-14.99
-19.80
-19.83
-15.00
-7.22
0.62
5.58
5.43
-0.49
-11.64
-25.82
-40.21
-52.37
-61.37
-67.71
-73.10
-79.25
-86.34
-93.06
-96.96
-96.34
-90.71
-81.15
-69.52
-56.85
-43.06
-27.01
-8.86
9.94
26.24
37.20
42.15
42.83
42.93
45.38
50.61
55.74
56.74
50.96
39.02
24.94
13.49
7.98
8.29
12.12
16.25
18.94
20.83
23.90
30.02
38.87
48.23
54.15
53.22
44.04
27.67
7.43
-12.93
-29.78
-41.00
-45.58
-44.29
-39.13
-32.54
-27.18
-24.94
-26.24
-29.48
-32.32
-32.33
-28.23
-20.62
-11.59
-4.14
-0.44
-1.81
-7.68
-16.35
-25.54
-33.14
-37.87
-38.93
-36.32
-30.24
-21.47
-10.96
-0.13
9.34
16.04
19.18
19.49
18.34
17.32
16.93
15.89
12.02
3.47
-9.38
-23.84
-35.01
-38.42
-31.84
-16.01
5.85
29.70
51.61
69.19
80.85
86.22
86.06
82.51
78.96
78.12
80.79
84.46
85.08
79.05
66.15
49.70
34.73
24.98
19.97
16.08
8.62
-4.69
-22.44
-40.58
-54.94
-64.04
-68.99
-72.48
-75.40
-76.17
-71.45
-59.08
-40.26
-19.60
-3.16
5.54
6.63
4.08
2.71
5.56
12.16
18.99
22.32
19.94
12.87
4.06
-3.05
-6.48
-6.33
-3.78
-0.21
4.40
10.68
19.42
30.07
40.73
49.01
53.18
53.60
51.70
49.36
46.70
41.97
32.67
17.51
-1.95
-22.17
-38.85
-49.68
-54.44
-54.91
-52.57
-48.02
-41.58
-33.89
-27.12
-23.60
-24.59
-28.79
-32.83
-33.31
-28.84
-22.02
-17.57
-20.08
-30.26
-44.11
-54.35
-54.39
-42.18
-21.08
1.31
17.92
25.50
26.16
25.41
28.20
36.28
46.81
54.87
56.42
51.34
42.89
35.78
32.99
33.67
34.58
31.93
24.64
14.70
6.22
2.62
4.05
7.66
8.81
4.85
-3.82
-13.32
-18.41
-15.45
-4.74
9.26
20.22
22.12
12.39
-7.23
-31.29
-53.19
-68.35
-75.15
-74.97
-69.83
-61.11
-48.46
-31.52
-11.52
7.65
19.81
19.88
6.30
-16.38
-39.41
-52.98
-50.32
-30.94
-0.28
32.00
56.97
68.56
65.95
52.85
35.61
20.67
11.70
9.28
10.93
13.34
13.53
10.46
4.79
-2.48
-10.48
-19.21
-28.45
-37.73
-45.16
-48.37
-46.11
-38.73
-28.68
-18.55
-10.30
-3.45
3.33
11.12
19.76
27.51
32.78
34.59
34.19
33.17
33.19
34.19
34.74
33.02
27.46
18.30
7.26
-2.64
-9.02
-10.42
-6.95
-0.34
7.21
13.52
17.81
19.70
19.40
17.03
12.34
5.37
-3.16
-11.60
-18.60
-22.54
-23.13
-20.89
-16.64
-11.28
-5.13
0.96
6.36
9.54
9.38
5.07
-2.63
-11.33
-17.98
-19.11
-12.88
0.60
18.45
36.56
50.48
56.89
55.01
46.04
33.09
19.25
7.10
-2.36
-9.53
-15.86
-22.84
-30.47
-37.59
-41.27
-39.17
-30.46
-17.06
-2.94
7.63
11.64
8.87
0.65
-10.75
-23.76
-37.26
-49.97
-60.30
-65.76
-64.44
-55.15
-39.00
-18.23
4.31
25.55
42.76
53.39
56.26
50.98
39.43
24.90
11.78
3.84
2.47
6.50
11.90
14.51
11.25
2.18
-10.06
-21.44
-28.52
-30.10
-26.75
-20.68
-13.50
-5.86
2.55
11.85
20.44
25.66
24.10
14.52
-1.30
-18.08
-29.36
-30.11
-19.34
-1.00
18.73
33.34
39.58
38.22
33.06
28.17
25.53
24.87
23.64
19.99
13.49
5.70
-1.34
-6.51
-10.08
-13.90
-19.18
-26.42
-34.47
-41.77
-47.02
-49.64
-50.33
-49.71
-48.24
-45.54
-41.08
-34.16
-24.50
-12.14
2.69
18.85
34.88
47.90
54.96
54.36
46.66
35.32
24.81
19.22
19.23
22.62
25.11
23.22
16.21
6.43
-1.95
-5.94
-4.61
-0.22
4.06
5.64
3.62
-0.98
-6.84
-13.10
-19.99
-27.80
-36.34
-43.82
-47.05
-43.34
-31.69
-14.50
4.14
19.27
27.96
30.69
30.56
31.50
35.28
40.87
44.33
41.93
32.12
16.87
0.70
-11.79
-17.83
-18.26
-15.76
-14.00
-14.98
-18.63
-23.12
-26.29
-27.09
-25.94
-24.89
-25.42
-27.96
-30.94
-31.77
-28.20
-19.84
-9.24
-0.03
4.39
3.47
-0.37
-3.01
-0.97
5.97
15.23
22.56
25.47
24.03
21.29
20.41
22.72
26.95
29.52
27.52
19.78
7.69
-5.99
-18.26
-27.19
-32.53
-34.29
-33.29
-29.86
-24.77
-18.80
-12.69
-7.12
-2.18
2.35
7.50
13.59
20.73
27.76
32.78
34.18
31.20
25.34
19.00
14.97
14.32
16.49
18.98
19.26
16.46
11.25
5.48
0.59
-2.99
-5.98
-9.37
-13.19
-16.75
-18.50
-17.68
-13.97
-8.27
-2.09
3.57
7.90
10.90
12.74
14.26
15.78
17.59
19.22
19.85
19.04
16.60
13.54
10.95
9.81
10.05
10.86
11.05
9.62
6.42
1.43
-4.54
-11.02
-17.77
-24.75
-32.01
-39.01
-44.86
-48.02
-47.56
-42.97
-35.11
-26.30
-18.80
-14.37
-12.92
-13.02
-12.05
-8.46
-2.02
5.93
12.93
17.19
17.75
15.82
13.13
12.02
13.78
18.15
23.64
27.96
29.97
29.30
27.59
26.46
27.05
29.16
31.38
32.34
31.07
27.97
23.50
17.94
10.92
1.61
-10.00
-22.88
-34.45
-42.43
-45.04
-42.48
-36.00
-27.12
-17.16
-6.80
2.47
9.29
11.61
8.90
2.28
-5.15
-9.69
-9.40
-4.69
1.06
4.00
1.44
-6.27
-16.25
-24.42
-27.32
-23.67
-14.16
-1.40
11.96
23.51
31.81
36.09
35.55
29.96
19.25
4.74
-10.99
-24.46
-32.35
-33.13
-27.55
-19.07
-11.48
-7.71
-7.89
-10.18
-11.54
-9.42
-3.24
5.65
14.23
19.72
20.16
15.26
6.63
-3.00
-10.71
-14.64
-14.19
-11.09
-7.80
-6.78
-8.75
-12.51
-15.79
-16.29
-13.57
-8.98
-5.07
-3.75
-4.85
-6.55
-6.00
-1.86
5.08
12.24
17.48
20.07
20.88
21.25
21.19
19.38
13.70
3.95
-7.50
-16.68
-20.16
-17.14
-9.73
-1.69
4.43
8.29
11.25
14.76
18.58
20.87
19.75
15.16
9.19
5.60
6.87
12.58
19.66
23.95
22.67
15.84
6.04
-3.31
-9.43
-11.23
-9.34
-5.06
0.23
5.65
10.22
13.26
14.15
12.87
10.46
8.10
7.13
7.69
9.00
9.39
7.23
1.73
-6.64
-16.06
-24.32
-29.40
-31.40
-32.18
-34.79
-41.27
-51.09
-60.58
-64.80
-60.18
-46.45
-27.33
-8.57
5.12
11.61
11.91
8.69
5.05
2.47
1.52
1.57
2.01
3.14
5.44
10.08
17.07
25.17
31.24
31.94
25.27
12.46
-1.41
-10.38
-10.03
-0.53
13.94
27.26
35.41
38.04
37.93
38.63
41.03
43.43
42.66
37.01
27.54
17.92
12.14
11.65
15.51
20.32
23.33
23.12
20.68
18.03
16.64
16.54
16.02
13.01
5.84
-5.26
-18.57
-31.79
-42.61
-50.31
-55.29
-58.74
-61.13
-61.63
-57.88
-47.57
-30.99
-11.05
6.61
16.83
16.85
8.29
-4.35
-15.96
-23.10
-25.69
-25.24
-23.90
-22.21
-19.99
-16.58
-12.07
-7.02
-1.81
3.71
10.95
20.82
33.18
45.82
54.86
56.92
50.26
36.46
19.62
5.17
-3.16
-4.59
-1.76
0.34
-2.38
-11.44
-23.98
-34.76
-38.33
-32.14
-17.69
0.52
16.87
27.46
30.50
26.60
17.16
3.57
-12.61
-29.12
-42.07
-47.40
-41.72
-24.75
0.57
28.68
52.93
68.21
71.66
63.56
45.98
22.74
-1.88
-23.32
-37.73
-43.23
-39.81
-30.03
-17.64
-6.68
-0.13
0.24
-5.80
-16.59
-29.73
-41.51
-48.71
-49.24
-43.33
-33.57
-23.76
-17.59
-16.34
-19.11
-22.59
-23.47
-19.71
-11.44
-1.13
8.27
14.06
15.80
14.58
12.77
12.73
15.88
22.31
30.46
38.21
43.15
43.92
40.55
34.83
29.65
27.41
29.50
34.77
41.04
45.63
47.48
47.28
46.45
45.78
44.03
39.35
30.05
16.72
1.64
-12.35
-23.42
-31.89
-38.54
-43.79
-46.32
-44.67
-38.55
-30.07
-23.51
-22.54
-28.40
-38.25
-47.30
-50.77
-46.65
-36.46
-23.78
-12.72
-5.81
-4.18
-7.04
-13.05
-20.20
-26.30
-29.27
-27.28
-20.33
-9.71
1.58
10.87
16.61
19.46
21.92
25.81
31.43
36.61
38.95
37.20
32.94
29.45
29.04
31.40
32.56
28.38
17.00
1.10
-13.29
-20.55
-18.48
-9.93
0.14
6.86
8.89
7.59
5.62
4.48
3.71
2.25
-0.99
-5.34
-9.71
-12.88
-14.68
-15.87
-16.58
-16.51
-13.96
-7.40
3.97
18.66
33.35
43.63
45.62
37.97
22.01
1.57
-19.05
-36.38
-48.22
-53.65
-52.06
-43.45
-28.33
-9.29
9.88
24.80
32.80
34.23
31.89
29.83
30.12
32.19
32.85
29.17
20.89
10.70
3.78
3.97
12.17
24.67
35.48
38.69
31.65
15.97
-3.98
-23.10
-37.91
-46.65
-49.39
-47.05
-40.91
-33.26
-26.89
-24.73
-27.81
-34.80
-41.50
-43.34
-37.24
-22.92
-3.36
17.25
34.73
46.29
50.07
45.08
31.71
11.96
-9.45
-26.94
-35.10
-31.99
-19.95
-5.14
5.11
5.56
-4.85
-22.31
-40.77
-54.00
-58.58
-54.57
-44.71
-32.95
-21.74
-12.00
-2.91
5.82
13.70
19.28
21.60
21.71
22.13
25.86
33.74
44.05
53.29
58.47
59.00
56.30
52.63
48.67
43.94
37.12
28.02
18.17
9.47
2.73
-3.37
-10.47
-19.30
-27.66
-31.67
-28.16
-17.00
-1.85
12.26
21.19
24.35
23.60
21.69
20.22
18.60
15.64
10.33
3.64
-2.54
-6.23
-7.03
-6.49
-7.24
-11.91
-21.31
-34.16
-46.84
-55.06
-55.22
-45.91
-28.55
-6.74
14.68
31.99
42.82
46.88
45.11
38.71
29.01
17.38
6.04
-2.79
-7.08
-6.61
-3.06
0.84
2.51
1.48
-1.17
-3.49
-4.86
-6.48
-11.14
-21.25
-36.28
-52.79
-65.16
-68.79
-61.73
-45.64
-24.62
-3.24
14.37
25.81
29.86
27.47
20.45
11.53
3.28
-2.75
-6.26
-7.98
-8.14
-6.84
-3.49
2.07
9.09
15.82
19.82
19.59
14.56
5.77
-5.11
-15.79
-23.75
-26.86
-23.64
-15.08
-3.93
5.38
9.37
7.00
-0.02
-7.94
-13.27
-14.34
-12.65
-10.57
-10.46
-12.92
-16.91
-20.57
-22.10
-20.96
-16.56
-8.98
1.66
14.16
26.50
36.38
41.77
42.37
39.07
33.95
28.65
23.91
19.59
14.95
9.57
3.04
-4.01
-11.19
-17.87
-23.32
-27.02
-28.87
-29.17
-27.87
-25.01
-20.02
-12.68
-3.76
4.93
10.93
13.39
13.15
13.55
17.81
27.56
40.68
52.18
56.88
51.49
36.88
17.29
-1.14
-13.78
-19.20
-19.47
-18.60
-19.69
-23.61
-27.79
-28.81
-24.67
-16.60
-8.94
-6.78
-13.31
-27.18
-43.58
-56.00
-59.48
-52.67
-37.29
-17.64
2.15
18.07
27.56
29.14
23.97
15.62
9.18
9.91
19.85
37.23
56.73
72.37
79.82
78.25
70.05
58.49
46.52
35.48
26.34
19.54
15.21
12.67
9.82
4.41
-5.14
-17.74
-30.73
-41.10
-47.70
-51.90
-55.99
-61.67
-67.66
-70.66
-66.77
-54.54
-35.85
-15.15
2.86
15.95
24.05
28.77
31.05
30.78
27.35
20.71
12.24
4.00
-1.88
-4.85
-5.55
-5.32
-5.32
-5.99
-7.09
-7.57
-6.80
-4.14
0.07
5.09
9.87
13.31
14.97
14.70
13.36
11.47
9.31
6.92
4.66
3.67
5.10
9.67
16.26
22.95
27.49
28.61
26.54
22.28
16.68
9.33
0.01
-10.97
-21.48
-28.03
-27.20
-17.49
-0.87
18.02
32.81
38.64
33.48
19.10
0.02
-18.47
-32.18
-40.31
-44.54
-47.91
-52.10
-56.13
-56.62
-49.61
-34.01
-12.42
8.69
22.05
22.56
9.74
-11.89
-35.16
-52.54
-59.56
-55.36
-43.25
-28.35
-15.48
-7.39
-3.69
-2.35
-0.74
2.23
6.47
10.79
14.46
17.70
21.45
26.98
34.15
41.96
48.62
53.11
55.56
57.06
59.31
62.49
66.04
68.68
69.85
69.41
67.14
62.38
53.35
38.68
18.28
-4.94
-26.26
-40.80
-46.11
-43.70
-37.35
-31.24
-26.99
-24.04
-20.56
-16.00
-11.79
-10.15
-12.39
-16.78
-19.65
-17.02
-7.69
6.10
19.45
26.96
25.97
17.01
4.13
-7.78
-14.63
-15.55
-13.03
-11.25
-14.34
-23.12
-34.96
-44.23
-45.70
-37.24
-21.39
-4.77
5.74
5.63
-4.35
-19.48
-33.69
-42.90
-46.50
-46.27
-44.62
-41.85
-36.61
-26.72
-11.95
5.08
19.67
26.93
24.94
15.37
3.69
-3.82
-2.06
10.78
32.39
57.45
78.89
91.05
90.92
79.45
60.55
39.26
19.52
3.02
-9.70
-19.26
-25.74
-28.79
-28.01
-23.92
-17.93
-11.63
-6.73
-3.58
-1.93
-0.62
1.31
4.19
7.91
11.24
12.72
10.82
5.57
-1.91
-9.29
-14.25
-15.89
-14.99
-14.22
-15.96
-21.52
-29.99
-38.78
-44.89
-46.73
-45.13
-42.10
-40.21
-40.26
-40.66
-37.96
-29.18
-13.93
5.18
22.60
32.90
32.72
22.69
6.76
-9.57
-20.81
-23.63
-16.79
-1.62
19.18
41.40
60.75
73.48
76.81
70.18
54.98
35.28
16.07
2.43
-2.48
1.21
9.82
17.35
19.15
13.33
1.87
-11.30
-22.70
-31.60
-39.73
-48.32
-56.62
-61.06
-57.40
-44.00
-23.45
-2.30
12.53
16.56
10.55
-0.98
-11.59
-16.66
-14.50
-6.31
5.26
17.63
28.77
37.61
43.26
45.22
43.43
38.42
31.47
23.92
17.35
12.46
9.32
7.14
5.03
2.46
-0.79
-3.90
-6.13
-6.20
-3.44
1.83
7.86
11.87
11.67
6.37
-1.93
-9.75
-13.67
-12.76
-8.83
-5.52
-5.82
-10.37
-16.96
-21.59
-21.48
-16.45
-9.14
-3.50
-2.26
-5.68
-10.99
-14.41
-12.68
-4.94
6.71
18.35
25.76
27.26
23.45
17.10
10.78
5.73
1.37
-3.44
-8.58
-13.24
-16.13
-17.47
-18.69
-21.30
-25.16
-27.70
-24.99
-14.83
0.88
16.66
26.30
26.47
19.01
9.13
2.38
0.91
3.27
5.55
4.96
1.79
-1.46
-1.63
2.09
8.32
13.84
16.22
14.91
11.44
8.31
7.00
7.74
8.69
8.03
4.60
-1.17
-7.55
-12.41
-14.77
-15.48
-16.61
-20.38
-27.60
-37.07
-45.96
-50.84
-49.69
-42.42
-31.12
-18.32
-6.63
2.53
9.00
13.02
15.33
16.27
16.56
16.51
16.71
17.50
18.82
20.36
21.21
21.19
20.16
18.95
18.70
20.76
25.95
33.92
43.27
50.79
52.83
46.25
30.21
6.30
-21.44
-47.69
-67.72
-78.02
-77.26
-65.98
-47.20
-25.35
-5.20
9.47
17.89
22.01
26.22
34.36
48.02
65.66
83.34
97.02
103.61
102.37
93.50
78.34
58.52
36.39
14.84
-3.77
-17.68
-27.22
-33.52
-38.30
-42.41
-46.26
-50.16
-54.29
-59.37
-65.26
-71.28
-75.80
-77.42
-75.37
-70.02
-62.90
-55.68
-49.62
-44.61
-39.58
-32.35
-20.78
-4.23
16.16
36.83
53.87
63.76
65.24
58.83
46.46
30.30
11.96
-6.33
-22.22
-32.85
-36.60
-33.87
-27.20
-20.39
-16.05
-15.04
-15.71
-16.00
-14.32
-10.37
-4.36
3.29
12.36
22.29
31.28
37.12
37.34
31.50
21.36
10.38
2.46
-0.63
0.77
4.11
6.64
6.36
3.48
-0.30
-2.89
-2.47
1.12
7.17
14.11
20.58
25.68
28.93
30.33
29.85
28.39
26.74
25.59
24.69
22.98
18.61
10.16
-1.74
-15.12
-26.57
-33.47
-34.16
-29.01
-19.96
-9.44
-0.21
5.86
7.89
6.25
1.82
-4.10
-10.91
-18.55
-26.67
-34.32
-39.55
-40.39
-35.79
-27.10
-17.94
-12.37
-13.31
-20.19
-29.67
-36.75
-37.63
-31.15
-19.46
-7.08
1.99
5.38
3.81
-0.30
-3.97
-5.33
-4.13
-1.31
1.97
5.53
9.85
15.66
23.05
31.48
39.68
46.40
51.21
54.63
57.31
59.66
61.47
61.68
58.62
51.62
40.71
27.64
14.74
4.14
-3.36
-8.57
-13.14
-18.88
-25.87
-33.19
-38.78
-41.03
-40.04
-37.19
-34.48
-32.90
-32.31
-30.74
-26.36
-18.48
-8.16
2.51
11.39
16.89
18.66
16.84
12.27
6.27
0.94
-1.50
-0.12
4.31
8.62
9.15
3.38
-8.09
-22.08
-34.85
-43.40
-47.24
-47.08
-44.23
-39.03
-31.57
-22.49
-13.47
-7.19
-5.17
-7.31
-11.26
-13.59
-11.57
-4.41
6.58
18.79
29.28
36.54
40.13
41.01
40.63
40.29
40.73
41.52
41.99
41.13
38.37
33.05
25.15
15.38
4.65
-5.23
-12.69
-16.53
-17.01
-15.35
-13.57
-13.09
-13.80
-14.81
-14.34
-11.70
-7.37
-2.92
0.40
2.57
4.81
8.79
14.30
19.14
19.64
13.37
0.80
-14.47
-27.45
-34.88
-36.25
-34.24
-31.31
-28.54
-24.87
-18.69
-10.21
-1.50
3.89
4.57
2.14
1.26
6.48
19.80
39.53
61.21
80.72
95.49
105.40
110.57
110.57
103.88
88.84
65.64
36.87
7.70
-17.12
-34.24
-43.16
-45.49
-43.57
-39.55
-34.39
-29.31
-25.28
-23.67
-25.38
-30.62
-39.08
-49.73
-61.87
-73.83
-83.70
-88.61
-86.89
-78.71
-67.06
-56.15
-49.22
-46.99
-46.73
-44.84
-39.09
-30.29
-21.36
-15.23
-12.90
-12.44
-11.37
-7.81
-2.05
4.35
10.15
15.10
20.05
25.36
30.64
34.75
36.76
36.94
36.67
37.89
41.27
46.51
51.87
55.95
57.86
58.08
57.72
57.63
58.03
57.63
55.03
48.65
38.17
24.60
10.34
-1.86
-10.38
-14.81
-16.54
-17.06
-17.54
-17.85
-17.03
-14.18
-9.18
-3.40
1.37
3.27
1.02
-6.01
-17.54
-31.57
-45.28
-54.94
-57.44
-51.55
-39.19
-24.78
-13.13
-7.35
-6.75
-7.98
-6.41
0.34
11.65
24.04
33.66
38.43
38.08
33.96
26.84
16.99
3.95
-11.99
-28.54
-41.70
-46.89
-41.92
-27.52
-8.11
10.34
22.75
26.57
22.88
15.21
7.74
3.53
3.99
8.51
15.57
23.65
31.33
37.76
41.58
41.91
37.78
29.20
17.18
3.88
-7.64
-14.93
-16.69
-13.81
-8.82
-4.88
-4.05
-6.20
-9.25
-10.07
-7.01
-0.50
6.83
11.02
8.89
-1.07
-17.78
-38.30
-57.95
-72.15
-77.07
-71.39
-56.70
-36.82
-16.76
0.09
12.29
21.11
28.22
34.68
39.72
41.63
39.29
33.11
25.40
18.83
15.11
13.68
12.25
8.54
1.32
-8.21
-17.86
-25.27
-29.32
-30.24
-28.97
-26.21
-21.54
-14.48
-4.35
8.25
22.26
35.88
47.58
56.29
60.99
61.31
57.20
50.10
42.12
35.56
31.46
28.71
24.27
14.87
-0.71
-20.87
-41.32
-56.99
-64.71
-64.17
-58.19
-50.30
-43.83
-39.63
-36.84
-33.72
-29.49
-24.73
-20.90
-19.28
-19.26
-18.89
-15.29
-6.77
6.17
20.75
33.04
40.12
40.87
36.85
30.70
24.94
20.68
17.51
14.27
10.01
4.88
-0.01
-3.54
-4.98
-4.71
-3.82
-3.68
-4.57
-6.42
-8.25
-9.39
-9.53
-9.09
-8.46
-7.12
-4.30
0.94
8.39
16.36
22.05
23.01
18.32
8.86
-2.28
-11.81
-16.92
-16.70
-11.76
-4.02
3.88
9.62
11.25
7.99
0.28
-10.12
-20.52
-28.40
-31.94
-31.13
-27.01
-21.57
-16.18
-11.73
-7.95
-4.11
0.22
5.15
9.73
13.09
14.56
14.19
12.21
9.46
6.97
5.61
6.07
8.16
11.45
14.69
17.04
18.35
18.91
19.63
20.66
21.82
22.33
21.73
20.03
17.76
15.63
13.43
10.69
6.50
1.18
-4.32
-8.34
-9.82
-9.05
-7.08
-5.76
-5.95
-7.88
-10.68
-13.56
-15.82
-17.06
-17.32
-16.62
-15.29
-13.11
-10.32
-7.03
-3.59
-0.69
1.13
1.10
-0.62
-3.51
-6.51
-9.10
-11.27
-13.64
-17.20
-22.17
-27.99
-32.74
-34.96
-34.20
-31.49
-28.67
-26.89
-26.47
-26.05
-24.26
-19.97
-13.61
-6.77
-1.08
2.36
3.91
4.46
5.69
8.35
12.16
16.06
18.94
21.01
23.17
27.39
34.63
44.24
53.25
57.87
55.69
47.03
35.40
25.14
19.59
18.74
19.86
19.55
15.90
9.91
3.73
-0.41
-2.70
-4.72
-8.42
-14.22
-20.23
-23.84
-22.71
-17.15
-9.33
-2.83
-0.37
-3.09
-9.77
-17.15
-21.89
-21.49
-15.97
-7.55
-0.36
1.53
-3.49
-13.93
-25.51
-33.94
-36.14
-32.39
-24.79
-15.58
-6.04
4.35
16.05
28.88
40.80
49.64
53.93
54.02
51.95
49.36
46.97
43.20
35.75
22.48
3.98
-16.82
-35.31
-46.87
-49.47
-44.27
-35.10
-26.46
-21.63
-21.00
-22.49
-23.11
-20.62
-15.52
-9.57
-5.44
-4.38
-5.96
-8.43
-10.20
-11.07
-11.71
-13.62
-17.08
-21.05
-23.35
-22.34
-18.07
-12.19
-7.42
-5.35
-6.29
-8.49
-10.00
-9.53
-6.68
-2.02
3.66
9.34
14.27
17.36
18.13
16.90
15.66
17.84
26.23
41.72
61.61
80.59
92.05
91.57
78.65
57.08
33.77
14.97
4.22
0.84
1.70
2.92
2.25
-0.08
-2.60
-3.89
-4.79
-7.39
-13.66
-23.47
-33.83
-40.50
-39.97
-32.41
-20.73
-9.57
-2.11
1.19
2.60
5.35
11.37
20.78
31.43
40.73
46.38
47.22
42.79
33.16
19.44
3.21
-12.90
-26.64
-36.18
-41.12
-42.20
-41.00
-39.36
-38.40
-38.93
-41.13
-44.65
-48.63
-51.88
-53.13
-50.89
-44.55
-33.70
-19.13
-2.52
13.52
26.55
34.78
37.30
34.48
27.41
17.38
5.58
-6.51
-17.39
-25.98
-31.41
-33.93
-34.22
-33.45
-32.45
-31.83
-31.61
-31.12
-29.52
-25.54
-18.23
-7.25
6.39
20.44
32.51
41.01
46.23
49.36
52.34
55.59
58.18
58.11
54.31
47.53
40.04
34.37
31.39
29.88
27.28
21.84
14.15
6.51
1.92
1.18
2.96
4.04
1.89
-4.17
-12.78
-21.59
-29.23
-35.29
-40.78
-46.05
-50.80
-53.73
-53.45
-49.48
-42.21
-33.35
-24.37
-17.13
-12.95
-12.51
-15.02
-18.06
-18.43
-12.54
0.60
19.35
39.22
55.03
62.89
61.92
54.27
43.00
31.32
20.70
11.63
3.84
-2.43
-6.35
-7.36
-4.98
0.27
7.74
16.12
24.22
30.39
32.33
28.11
16.64
-0.71
-20.55
-38.41
-50.62
-55.70
-54.56
-50.27
-45.40
-41.67
-38.37
-33.71
-25.70
-14.10
-0.61
12.01
21.08
25.96
27.31
27.09
27.02
28.13
31.10
35.98
42.61
49.70
55.34
57.02
53.50
45.24
34.05
22.53
12.20
3.64
-3.55
-9.47
-13.73
-16.14
-17.37
-19.96
-26.49
-38.54
-54.39
-69.80
-79.47
-79.88
-70.68
-54.28
-34.62
-15.06
1.67
13.89
20.32
20.65
15.94
8.42
1.53
-1.86
0.02
6.67
16.21
25.85
32.94
36.58
37.13
36.46
36.35
37.81
40.04
41.23
39.39
33.20
23.22
11.21
-0.12
-9.01
-14.85
-18.36
-20.64
-22.15
-22.68
-21.40
-18.43
-14.88
-12.76
-13.87
-18.74
-26.26
-33.57
-38.00
-37.76
-33.51
-27.26
-21.47
-17.49
-14.43
-10.31
-3.15
6.78
17.17
24.22
24.86
18.48
6.96
-6.06
-17.54
-25.72
-30.85
-33.65
-34.28
-32.07
-25.85
-15.58
-1.85
13.47
28.82
43.14
55.91
66.03
71.12
68.77
56.99
36.40
10.01
-16.77
-38.33
-50.47
-51.48
-43.00
-28.54
-12.89
0.25
8.56
11.68
10.60
6.81
1.76
-3.75
-8.72
-12.84
-15.88
-17.80
-18.91
-19.31
-19.12
-17.68
-14.62
-9.19
-1.13
10.04
24.70
42.76
63.27
83.26
98.59
104.84
100.07
85.69
65.80
45.54
28.21
14.64
3.14
-8.01
-19.08
-28.57
-33.99
-33.64
-27.48
-17.78
-7.04
2.28
8.99
13.04
15.10
16.11
16.47
16.54
15.29
11.39
3.09
-10.15
-27.13
-44.89
-59.39
-67.82
-69.34
-66.09
-61.59
-59.28
-61.26
-67.36
-75.75
-83.53
-87.87
-86.37
-77.92
-63.30
-44.53
-24.63
-6.19
8.87
20.64
29.83
37.60
44.41
50.01
53.92
55.44
54.77
52.28
48.77
45.08
41.91
39.83
38.42
36.73
33.44
28.33
21.90
15.94
12.06
10.44
9.53
6.69
0.09
-10.80
-24.10
-36.76
-45.79
-49.47
-48.27
-44.32
-41.04
-41.04
-45.49
-52.98
-59.98
-61.87
-55.01
-39.33
-18.22
2.32
16.67
21.75
18.39
10.86
4.52
4.16
11.82
27.16
46.93
66.57
81.53
88.40
86.15
75.87
60.99
45.38
32.89
25.56
23.43
24.91
27.10
27.24
23.16
14.46
2.22
-10.86
-22.05
-29.36
-31.65
-29.27
-23.21
-14.75
-5.02
4.18
11.09
14.04
12.15
6.45
-0.77
-5.79
-6.08
-1.19
6.86
14.53
18.74
17.89
12.86
5.32
-3.02
-11.58
-20.49
-29.47
-37.36
-42.48
-44.03
-42.72
-40.72
-39.46
-38.29
-34.37
-24.55
-7.84
12.75
31.28
42.24
43.30
36.71
27.54
20.67
18.19
18.57
18.70
15.76
9.04
-0.22
-9.75
-17.54
-22.87
-25.98
-27.96
-29.48
-30.64
-30.41
-26.82
-18.44
-5.49
9.62
23.32
32.24
35.13
33.36
29.73
26.41
23.99
21.65
18.18
13.93
10.51
9.78
12.11
15.86
18.41
17.67
13.59
7.56
1.14
-5.47
-13.10
-22.07
-31.27
-37.74
-39.01
-34.28
-26.06
-19.23
-18.25
-25.13
-38.17
-53.35
-65.46
-70.98
-68.62
-59.65
-46.88
-33.49
-22.16
-14.01
-9.48
-7.80
-8.44
-10.66
-13.55
-16.06
-16.59
-14.41
-9.81
-5.15
-2.99
-4.87
-9.85
-14.23
-13.90
-5.64
10.42
31.89
54.65
74.93
89.91
97.79
97.96
90.74
77.87
61.77
45.85
32.97
25.01
22.73
25.58
32.35
40.50
47.37
49.81
45.74
34.81
18.74
0.88
-15.68
-28.54
-37.25
-42.45
-45.22
-45.97
-44.49
-40.72
-34.72
-27.48
-19.88
-12.76
-6.23
0.25
6.97
13.40
17.74
18.24
13.19
3.11
-9.87
-22.35
-31.24
-34.78
-32.61
-26.17
-16.94
-6.41
4.39
14.18
21.41
25.07
24.79
22.22
20.09
21.50
27.43
36.24
43.95
45.90
39.29
24.21
4.03
-16.61
-33.31
-43.18
-45.12
-39.10
-27.08
-12.04
0.92
6.78
2.17
-12.43
-32.65
-52.03
-64.81
-69.42
-67.94
-64.74
-63.10
-63.31
-62.84
-58.08
-47.19
-30.61
-11.22
7.71
23.70
35.74
43.76
47.71
47.34
41.99
32.53
21.33
12.29
9.08
13.46
24.16
36.69
46.05
48.34
43.03
32.49
20.77
11.82
7.91
10.01
17.41
28.89
42.23
54.35
61.57
60.43
49.53
30.12
6.50
-15.98
-32.86
-42.65
-46.92
-49.02
-52.19
-57.39
-63.72
-68.63
-70.11
-67.41
-61.18
-52.53
-41.87
-29.37
-14.96
0.20
14.31
24.96
31.03
33.22
33.27
33.42
34.51
36.39
37.75
37.96
37.39
37.30
38.82
41.56
43.60
41.73
33.80
19.78
2.39
-13.72
-24.32
-27.09
-23.17
-15.84
-9.56
-7.62
-10.94
-18.58
-28.11
-37.26
-43.62
-45.57
-41.65
-31.81
-17.32
-0.93
13.39
22.77
25.94
23.79
18.14
10.92
3.24
-4.71
-12.66
-20.32
-26.69
-31.08
-32.98
-32.78
-30.85
-27.61
-23.70
-19.70
-16.68
-14.94
-14.09
-12.71
-9.12
-2.74
5.96
15.00
22.54
27.50
30.03
30.52
29.69
28.42
27.29
27.53
30.08
35.27
41.67
46.58
47.15
41.62
31.04
18.12
6.42
-1.72
-5.46
-5.95
-5.10
-4.65
-5.80
-8.03
-10.54
-11.93
-11.93
-10.80
-9.45
-8.40
-7.20
-4.65
0.64
8.98
19.06
27.71
31.57
28.57
18.54
3.92
-11.96
-25.39
-33.90
-36.22
-32.73
-25.22
-16.06
-7.85
-2.18
-0.04
-1.18
-4.77
-9.72
-14.82
-19.25
-22.21
-23.68
-23.54
-21.91
-18.77
-14.42
-9.05
-3.07
2.32
6.13
7.53
6.33
2.96
-1.30
-5.03
-7.00
-5.93
-1.67
5.23
12.84
18.89
21.84
21.52
19.91
19.28
21.68
26.54
31.89
35.09
34.76
31.33
26.53
22.28
18.86
15.38
10.52
4.27
-2.09
-6.26
-6.27
-2.55
3.06
7.60
8.83
6.05
0.34
-6.47
-12.77
-17.51
-21.00
-23.90
-27.44
-32.58
-39.06
-45.77
-50.09
-50.03
-44.46
-35.25
-25.53
-19.13
-17.58
-19.58
-22.01
-21.28
-16.30
-8.71
-1.94
1.35
0.41
-3.05
-5.66
-5.03
-0.02
8.35
18.38
28.09
35.96
40.76
41.35
37.54
29.57
19.39
9.93
4.15
3.79
8.02
14.41
19.16
19.81
15.89
9.67
4.01
1.50
3.20
8.03
14.24
20.13
24.86
27.95
29.27
29.08
27.51
25.46
23.80
23.84
25.70
28.82
31.35
31.35
27.23
18.27
5.64
-8.88
-22.90
-34.57
-42.65
-47.17
-49.23
-49.78
-49.78
-49.12
-47.25
-43.27
-37.21
-30.27
-24.16
-20.47
-19.49
-20.67
-21.91
-21.16
-17.26
-9.91
-0.55
8.97
16.48
21.36
23.78
25.39
27.38
30.13
32.91
33.73
31.40
25.76
18.58
11.91
7.45
5.32
3.93
1.75
-2.18
-7.12
-11.65
-14.56
-15.50
-15.39
-15.44
-16.90
-19.71
-23.55
-27.07
-28.76
-27.36
-22.35
-14.39
-4.83
3.77
9.50
10.83
8.08
2.32
-4.50
-10.15
-13.13
-12.77
-10.00
-6.13
-2.85
-0.85
0.82
3.66
9.05
16.70
24.64
29.71
29.38
23.14
12.41
0.02
-11.81
-21.18
-27.66
-31.15
-31.38
-27.76
-20.41
-10.73
-1.05
5.46
6.84
2.80
-4.55
-12.31
-17.77
-19.29
-16.79
-10.91
-2.97
6.32
16.38
26.82
37.39
47.34
55.89
62.14
65.57
65.63
62.55
57.25
51.13
45.68
40.84
35.76
28.62
18.32
5.27
-8.15
-19.03
-25.79
-28.35
-29.03
-30.50
-34.81
-41.66
-49.10
-54.48
-55.77
-53.11
-47.94
-42.98
-40.23
-40.56
-43.12
-45.53
-45.39
-41.13
-33.23
-23.71
-15.68
-11.12
-10.07
-10.80
-10.47
-7.63
-2.19
3.99
9.05
12.00
13.51
15.48
19.13
24.74
30.65
35.24
36.91
35.54
31.63
26.14
19.98
13.42
7.04
1.18
-3.21
-5.02
-3.34
2.53
12.14
24.08
35.27
42.62
43.31
36.71
24.66
10.65
-1.44
-9.96
-15.17
-19.62
-25.36
-32.57
-38.80
-40.01
-33.11
-17.66
2.98
23.70
39.29
47.12
47.92
44.57
40.79
38.59
38.10
37.51
34.91
29.36
21.58
13.89
8.51
7.26
9.94
15.38
21.21
25.11
25.77
23.24
19.05
14.84
12.04
10.13
7.28
0.94
-10.42
-25.58
-40.88
-51.39
-53.98
-48.41
-38.03
-27.81
-21.17
-18.91
-18.29
-16.07
-10.50
-3.27
1.64
0.32
-8.59
-22.05
-34.62
-40.81
-39.11
-32.22
-25.93
-25.48
-32.08
-42.37
-49.87
-49.47
-39.78
-24.64
-10.49
-2.76
-2.79
-7.02
-10.00
-6.83
3.43
18.04
32.56
43.50
50.36
54.69
59.20
64.84
70.76
74.28
72.86
66.06
55.44
44.59
36.47
32.59
31.51
30.23
25.78
17.00
5.30
-6.69
-16.13
-22.44
-26.95
-32.49
-41.51
-54.85
-70.88
-85.65
-95.39
-97.45
-91.54
-79.55
-64.59
-49.34
-34.88
-21.40
-8.24
4.34
15.33
23.02
26.15
25.05
21.79
19.40
19.88
23.74
29.07
32.80
31.82
24.55
11.70
-3.94
-17.98
-26.52
-27.66
-22.34
-14.08
-7.50
-6.32
-10.71
-17.95
-23.76
-24.33
-18.29
-7.36
4.73
14.54
19.84
20.88
19.02
16.00
13.11
10.91
9.91
10.82
14.82
22.00
31.16
39.22
43.01
40.90
33.85
25.48
19.63
18.69
21.66
25.18
25.63
21.30
13.59
5.23
-0.85
-4.11
-6.07
-9.15
-14.38
-20.94
-26.73
-29.20
-27.64
-22.81
-16.75
-11.46
-7.77
-5.40
-3.26
-0.88
1.53
2.72
1.53
-2.67
-9.12
-15.81
-20.99
-23.29
-22.92
-20.98
-18.86
-16.93
-14.53
-10.64
-4.74
1.85
7.35
9.82
8.98
6.39
4.91
6.82
12.32
20.14
27.79
33.63
37.20
38.72
38.66
36.74
32.46
25.88
18.56
12.83
10.82
12.85
16.86
19.46
17.24
9.49
-1.83
-12.85
-19.89
-21.29
-18.42
-14.41
-12.59
-15.21
-22.01
-31.17
-40.22
-47.10
-50.92
-51.65
-50.22
-47.17
-43.25
-38.21
-31.50
-22.44
-10.53
3.45
17.83
29.83
37.34
39.52
37.58
34.39
33.04
35.37
40.17
44.33
43.65
35.83
21.82
5.43
-8.70
-17.71
-21.45
-22.61
-23.73
-25.94
-28.08
-27.66
-23.44
-15.94
-7.96
-2.13
-0.21
-1.36
-3.63
-5.00
-4.43
-2.54
-0.07
2.25
4.61
7.45
10.90
14.51
17.30
18.64
18.34
17.20
15.83
14.55
13.20
10.95
7.23
1.82
-4.12
-9.42
-12.54
-12.91
-11.35
-9.10
-7.70
-7.46
-8.14
-8.56
-8.03
-6.43
-4.35
-2.69
-1.83
-1.92
-2.59
-4.03
-6.56
-10.43
-15.19
-19.19
-20.93
-19.71
-16.86
-14.42
-14.58
-18.01
-23.28
-28.06
-30.48
-30.31
-28.26
-25.93
-24.04
-22.11
-18.88
-13.53
-6.59
0.65
6.63
10.89
14.00
17.42
22.26
28.32
34.73
40.07
43.48
44.88
45.07
44.76
43.82
41.70
37.28
30.26
21.10
11.56
3.68
-1.02
-1.98
0.10
3.66
6.56
7.93
7.92
8.08
9.61
12.95
16.39
17.07
12.72
3.08
-9.35
-20.79
-27.88
-29.47
-27.02
-23.22
-20.64
-20.04
-20.49
-20.08
-16.81
-9.90
0.37
12.03
22.49
28.57
28.25
21.34
9.75
-3.26
-15.15
-24.44
-31.78
-37.41
-40.56
-39.00
-31.12
-17.61
-2.49
8.32
10.99
5.62
-3.28
-9.74
-10.00
-4.74
1.44
3.48
-1.19
-10.54
-19.43
-23.08
-19.42
-10.38
0.12
7.88
11.39
11.21
9.90
9.90
12.39
17.09
22.15
25.89
26.78
24.96
21.48
17.95
15.23
13.31
11.78
10.06
8.64
8.40
10.59
15.30
21.04
25.57
26.25
21.95
12.83
0.83
-11.46
-21.62
-27.74
-28.98
-25.20
-17.59
-7.84
1.56
8.44
11.60
11.01
7.60
2.22
-4.24
-11.51
-19.37
-27.31
-34.31
-38.73
-39.33
-35.35
-27.52
-17.14
-6.15
4.45
14.54
24.31
34.12
42.93
49.14
50.48
45.87
35.56
21.62
7.71
-2.57
-6.74
-4.85
0.80
6.50
8.58
5.62
-1.32
-8.49
-12.28
-10.19
-2.93
6.42
13.76
15.82
12.05
3.85
-5.53
-13.47
-18.15
-19.68
-19.13
-17.84
-17.37
-18.40
-21.56
-26.56
-32.72
-38.63
-42.44
-43.06
-39.90
-34.12
-26.89
-19.72
-12.84
-5.95
1.35
8.93
15.63
20.30
21.89
21.31
20.13
20.33
22.84
27.15
31.82
34.98
35.94
34.73
32.52
30.42
29.00
28.43
28.14
27.93
27.08
25.21
21.79
16.38
8.78
-1.03
-12.09
-23.87
-35.02
-44.51
-50.82
-53.11
-51.08
-45.51
-38.10
-30.11
-22.69
-15.59
-8.71
-2.21
2.73
4.55
2.54
-2.67
-8.63
-12.73
-12.95
-9.11
-2.66
4.40
10.22
14.34
16.62
17.42
16.85
15.48
14.01
13.09
13.55
15.23
17.95
21.30
25.13
28.71
30.47
28.00
18.48
0.89
-23.28
-49.03
-69.96
-80.94
-80.44
-71.23
-58.51
-47.38
-39.89
-35.26
-30.87
-24.41
-15.43
-5.03
4.74
12.57
17.70
20.29
20.30
17.73
13.39
9.14
7.94
11.77
20.75
32.43
42.67
47.81
46.47
40.26
32.28
25.78
21.95
20.14
19.01
17.79
16.98
17.39
19.52
21.92
22.28
18.15
8.76
-4.22
-17.72
-28.27
-33.76
-33.80
-30.30
-25.75
-22.58
-22.07
-24.17
-27.74
-31.05
-32.63
-31.70
-27.86
-21.35
-12.50
-2.16
8.85
18.78
25.86
28.83
27.25
21.92
14.65
7.96
3.81
3.83
8.25
16.49
26.97
37.12
44.56
46.91
43.03
32.60
17.25
-0.64
-17.52
-30.14
-35.96
-34.30
-26.40
-15.33
-4.53
3.42
7.74
9.30
9.69
9.42
8.37
5.57
0.48
-6.31
-13.18
-17.90
-19.27
-17.08
-12.79
-7.96
-4.57
-3.66
-5.27
-8.92
-13.15
-16.72
-18.26
-17.56
-14.70
-10.65
-6.69
-3.99
-3.55
-5.54
-9.45
-14.09
-18.14
-20.14
-19.79
-18.01
-16.42
-16.98
-19.93
-23.66
-24.58
-19.28
-6.23
13.29
34.82
53.09
63.21
63.28
53.68
37.39
18.64
1.59
-10.61
-16.38
-15.58
-10.22
-3.05
3.21
6.89
8.04
7.58
7.35
8.78
13.37
21.66
33.66
48.02
61.72
71.32
73.24
65.91
49.96
28.50
5.70
-14.45
-29.20
-38.18
-42.48
-44.28
-44.95
-45.03
-44.05
-41.00
-35.22
-26.42
-15.10
-1.43
14.18
30.86
46.46
57.99
62.93
60.38
52.81
44.72
40.46
41.35
44.96
46.83
42.42
30.73
13.72
-4.45
-20.39
-32.40
-40.84
-47.06
-51.80
-55.20
-56.84
-57.09
-56.90
-57.28
-58.46
-59.31
-58.66
-55.24
-49.66
-43.53
-39.11
-37.55
-38.56
-40.13
-39.16
-33.63
-22.93
-8.72
6.00
17.92
24.79
26.76
25.33
23.40
23.11
26.10
32.16
40.36
49.59
58.75
67.06
72.66
73.45
67.10
52.48
30.40
3.75
-22.99
-46.08
-62.49
-71.61
-74.21
-72.85
-70.04
-67.68
-66.27
-64.45
-60.70
-53.81
-44.37
-33.63
-23.12
-13.53
-3.96
6.61
18.94
32.08
44.38
53.59
58.22
58.10
53.81
46.76
38.52
31.31
27.48
28.76
34.91
43.34
50.21
51.86
47.52
39.37
31.79
27.94
27.93
28.82
26.26
17.95
4.68
-9.88
-22.04
-30.12
-35.28
-40.22
-45.95
-50.79
-50.99
-43.93
-30.13
-14.00
-1.74
2.87
0.24
-5.14
-8.19
-6.58
-2.55
-1.00
-5.53
-15.89
-26.79
-31.45
-25.44
-10.16
8.33
22.50
27.54
24.28
17.51
13.12
14.07
19.27
24.92
27.32
25.35
20.20
14.58
10.17
7.25
4.71
1.67
-1.71
-4.57
-5.67
-4.75
-1.86
2.47
8.24
15.10
21.55
25.08
22.40
11.88
-5.75
-26.66
-46.39
-61.08
-68.77
-69.75
-64.88
-55.64
-43.25
-29.66
-17.41
-9.04
-5.96
-6.94
-9.04
-8.51
-3.79
4.41
13.07
19.29
22.41
24.08
27.67
34.84
44.84
53.84
57.75
54.45
45.41
35.52
29.60
30.27
35.87
42.64
46.64
46.30
42.58
37.18
31.53
25.13
17.18
7.15
-4.04
-14.71
-23.67
-30.57
-36.45
-41.81
-46.86
-50.09
-49.63
-43.91
-32.49
-16.67
1.46
18.79
32.61
40.41
41.02
34.57
22.37
7.25
-8.04
-20.50
-28.39
-30.96
-29.11
-24.81
-20.28
-17.58
-17.09
-18.06
-18.63
-17.25
-12.98
-5.83
3.29
13.54
23.68
33.01
40.55
45.24
45.85
41.10
30.23
13.10
-8.74
-32.73
-55.00
-71.83
-80.64
-80.94
-75.04
-66.35
-58.58
-53.37
-50.36
-47.07
-41.29
-32.72
-23.09
-15.96
-13.77
-16.40
-20.40
-21.15
-15.53
-3.94
9.21
18.87
21.79
18.90
14.08
11.62
13.71
19.05
25.05
29.56
32.70
35.88
40.59
46.37
50.75
51.21
46.29
37.28
27.04
18.67
13.50
11.26
10.69
10.45
10.48
10.86
12.05
13.78
15.50
16.34
15.89
14.72
13.35
12.33
11.07
8.74
4.38
-2.16
-9.87
-17.33
-22.96
-26.13
-26.63
-25.07
-22.16
-18.68
-15.69
-13.54
-12.26
-10.50
-6.52
1.37
13.27
27.25
40.04
48.25
50.84
48.98
45.51
42.63
40.78
38.48
33.72
25.85
15.76
6.02
-1.58
-6.60
-10.11
-13.85
-18.96
-25.66
-33.00
-40.65
-48.34
-55.95
-62.32
-64.58
-59.47
-44.82
-22.50
1.99
20.57
26.65
17.91
-2.67
-28.17
-51.59
-67.97
-76.07
-76.70
-71.28
-60.20
-43.66
-23.32
-2.49
14.08
22.98
23.27
17.18
8.72
1.44
-2.61
-3.50
-1.69
1.98
7.23
13.58
19.86
24.32
24.94
21.16
13.72
5.26
-1.35
-4.15
-2.61
2.12
8.14
12.81
14.30
11.72
6.11
-0.62
-5.98
-8.18
-7.23
-4.37
-1.75
-0.44
-0.26
0.34
3.38
9.90
19.60
30.00
38.17
41.57
39.67
34.12
27.97
24.22
23.29
23.07
19.45
9.13
-8.19
-29.04
-47.49
-58.54
-59.90
-53.47
-43.05
-32.29
-22.43
-12.63
-1.55
11.27
24.06
34.53
40.74
42.72
41.73
39.00
35.06
29.28
21.60
12.94
6.01
3.35
6.50
14.60
24.29
31.85
34.37
30.99
22.71
12.09
1.58
-7.22
-13.46
-17.48
-19.23
-18.77
-15.48
-8.78
1.00
11.96
20.24
21.91
14.00
-2.79
-24.53
-44.84
-57.65
-59.90
-52.03
-37.93
-22.40
-9.56
-0.90
3.67
5.22
4.79
2.44
-1.68
-6.45
-9.19
-7.20
1.38
15.79
32.30
46.28
53.66
53.24
46.02
34.65
21.51
7.60
-6.53
-20.50
-32.66
-41.08
-43.87
-40.89
-33.38
-23.67
-14.10
-5.40
2.20
9.17
15.29
20.14
22.99
23.78
23.56
23.37
23.79
23.92
22.31
17.46
9.57
0.69
-6.39
-9.21
-7.55
-3.16
0.17
-0.68
-6.68
-16.02
-24.54
-28.37
-25.24
-16.15
-4.10
7.14
15.49
20.78
23.52
24.56
23.56
19.67
12.48
3.61
-4.17
-8.31
-7.82
-4.77
-2.55
-4.63
-11.87
-22.19
-31.32
-35.02
-31.34
-21.18
-8.27
3.54
11.17
13.94
12.87
9.55
5.32
0.54
-4.16
-7.99
-9.35
-7.32
-2.51
2.70
4.72
1.18
-7.90
-19.87
-30.52
-35.88
-33.87
-25.61
-13.88
-2.69
5.46
9.81
11.93
14.13
17.92
23.19
27.47
28.12
23.34
14.63
5.70
0.96
2.85
10.38
19.74
25.96
26.16
19.96
9.37
-2.99
-15.19
-26.15
-35.40
-42.46
-46.93
-48.74
-48.62
-47.99
-47.85
-48.54
-48.53
-46.13
-39.61
-28.36
-12.82
5.38
23.73
39.84
51.16
56.33
54.62
47.20
36.75
26.67
20.19
18.53
20.96
24.65
26.74
25.31
20.64
14.58
9.24
6.34
6.70
10.46
16.61
23.39
28.69
30.47
27.89
21.34
13.04
4.66
-3.03
-10.76
-19.39
-28.88
-37.76
-43.38
-44.32
-41.05
-36.38
-33.31
-33.15
-35.13
-36.31
-34.27
-27.88
-18.53
-9.12
-2.86
-1.69
-5.31
-11.41
-16.16
-16.44
-10.54
0.50
13.69
25.01
30.86
29.63
21.28
8.14
-6.74
-19.90
-28.82
-32.11
-29.70
-22.52
-11.45
2.15
17.10
31.64
43.87
52.37
56.98
59.13
60.56
62.62
64.90
65.87
63.48
56.84
46.82
35.50
25.60
18.72
15.25
14.02
13.41
11.69
7.61
1.21
-6.75
-14.38
-19.97
-22.48
-22.17
-20.65
-20.14
-22.47
-27.38
-33.25
-37.60
-38.69
-36.84
-34.18
-33.66
-37.02
-44.15
-52.98
-60.89
-65.73
-66.69
-64.20
-59.29
-53.39
-47.43
-42.13
-36.97
-30.50
-20.91
-7.36
8.22
21.90
28.86
26.51
15.88
1.41
-11.14
-17.55
-16.09
-8.19
3.70
17.14
30.62
43.36
54.45
63.27
68.89
71.23
70.31
66.58
60.12
51.11
40.49
29.70
20.87
14.80
11.04
7.29
1.26
-8.17
-20.23
-31.91
-40.46
-44.26
-44.23
-43.07
-43.71
-47.30
-52.01
-54.50
-50.88
-39.92
-23.13
-4.74
10.79
20.63
24.53
24.93
24.70
26.07
28.96
32.45
35.60
38.65
43.02
49.26
56.35
60.98
60.00
52.07
38.78
23.79
10.50
0.77
-6.39
-12.74
-19.61
-27.03
-34.07
-40.31
-46.24
-53.37
-61.89
-70.92
-77.73
-80.06
-77.32
-70.77
-62.88
-55.53
-49.30
-43.19
-36.48
-28.80
-20.62
-12.73
-5.10
2.79
12.22
23.29
34.82
45.01
52.44
56.94
59.23
60.77
61.42
59.91
54.17
43.33
28.97
15.16
7.01
7.55
16.58
29.80
41.36
46.29
42.65
32.17
18.38
5.13
-5.26
-11.93
-15.35
-16.35
-15.70
-14.03
-11.41
-8.24
-4.30
0.42
5.77
10.84
13.99
13.71
9.14
1.34
-7.20
-13.25
-14.75
-12.06
-7.76
-5.80
-8.56
-16.41
-26.82
-36.18
-41.18
-40.58
-35.18
-26.72
-17.42
-8.84
-2.06
2.41
4.35
4.07
2.64
1.45
1.91
4.80
10.41
18.16
27.27
36.59
44.29
48.34
46.75
39.10
26.70
12.70
0.99
-5.52
-5.89
-1.95
3.36
6.60
5.91
1.17
-5.98
-13.32
-19.12
-22.40
-23.29
-22.04
-19.06
-14.26
-7.72
-0.21
6.82
11.36
12.04
8.78
3.14
-2.32
-5.19
-4.36
-0.58
4.01
6.41
4.91
-0.65
-8.01
-13.69
-15.14
-11.71
-5.53
0.28
2.88
1.90
-0.85
-2.51
-0.91
4.00
10.51
15.91
18.96
19.81
19.75
19.68
19.13
16.94
11.69
3.42
-6.44
-15.69
-22.55
-26.52
-28.38
-29.47
-30.07
-29.57
-26.00
-18.28
-7.13
4.66
13.21
16.27
14.22
10.33
8.63
11.65
19.25
28.83
37.35
43.09
46.37
47.91
48.22
46.12
39.71
27.86
11.30
-6.81
-22.96
-34.18
-39.39
-38.92
-34.28
-27.35
-19.84
-13.77
-10.08
-8.95
-9.04
-8.42
-5.58
-0.75
3.92
5.55
1.79
-7.30
-19.24
-29.99
-35.54
-33.97
-25.81
-14.09
-2.39
6.20
10.66
11.79
11.21
10.23
8.54
4.96
-1.98
-12.19
-23.85
-33.80
-39.36
-39.50
-34.73
-27.22
-18.86
-11.18
-4.97
-0.79
0.69
-0.69
-4.55
-9.07
-12.04
-11.10
-5.71
3.07
12.88
20.91
25.71
26.55
23.76
17.66
9.00
-1.11
-10.73
-16.74
-16.80
-10.00
1.45
13.63
22.09
24.49
21.12
14.05
5.94
-2.24
-10.60
-19.93
-29.94
-38.69
-43.02
-39.97
-28.86
-11.25
9.08
28.06
42.17
49.82
51.49
49.00
45.07
41.81
40.32
40.12
40.23
39.44
36.60
31.40
23.76
14.38
3.83
-6.66
-15.78
-21.71
-22.65
-18.09
-9.04
1.12
8.32
9.23
3.39
-6.41
-15.33
-18.74
-15.24
-7.03
0.91
4.12
1.02
-6.29
-13.66
-18.24
-20.08
-22.22
-27.70
-37.26
-47.75
-53.52
-49.87
-36.11
-17.12
-0.48
6.97
3.04
-9.64
-25.47
-39.04
-48.01
-52.54
-54.18
-53.38
-49.46
-41.30
-28.69
-13.26
2.38
15.09
23.37
27.14
27.31
24.75
19.92
13.57
6.81
1.94
1.00
5.45
15.02
27.99
42.18
55.65
67.90
78.68
88.16
95.62
99.84
99.58
94.41
85.52
74.85
64.95
57.05
51.18
45.72
38.23
26.58
9.83
-10.19
-29.88
-44.45
-50.46
-47.09
-36.70
-24.14
-14.12
-9.76
-10.82
-15.16
-19.65
-22.28
-23.09
-23.64
-26.40
-32.53
-42.35
-54.22
-65.41
-72.92
-74.09
-67.91
-55.14
-38.58
-21.21
-5.80
6.24
14.76
19.94
22.12
20.64
14.80
3.85
-11.35
-28.64
-44.65
-55.57
-58.68
-52.40
-37.30
-15.51
8.88
30.72
44.81
47.81
40.30
26.08
11.57
1.89
-0.64
2.26
6.34
7.95
5.87
2.14
-0.41
0.51
4.66
9.78
13.51
14.22
12.13
7.71
2.03
-4.54
-11.34
-17.26
-20.87
-20.95
-17.65
-11.69
-4.86
1.47
6.46
10.16
12.93
14.94
16.59
17.85
19.47
22.03
26.35
32.53
39.40
44.97
46.87
44.34
38.10
30.89
25.74
24.13
25.34
26.20
23.79
16.17
4.31
-9.36
-22.16
-32.69
-41.01
-47.95
-54.54
-60.78
-66.51
-71.02
-73.79
-74.66
-73.96
-72.73
-71.43
-69.96
-66.49
-58.69
-44.62
-24.36
-1.19
20.00
33.90
38.20
33.64
23.86
13.11
4.53
-0.16
-0.87
2.69
10.59
22.96
38.78
56.15
72.71
86.46
96.63
102.85
105.14
102.17
92.13
73.76
47.89
18.53
-9.04
-29.91
-42.77
-49.66
-54.68
-60.46
-65.95
-67.17
-59.37
-41.58
-17.24
6.73
23.75
31.05
30.56
27.32
25.51
26.49
28.21
27.81
24.32
19.80
17.95
21.17
29.20
38.14
43.60
43.07
37.47
30.44
25.37
23.61
22.84
19.49
10.57
-4.19
-22.54
-41.44
-58.57
-73.57
-86.13
-95.58
-99.45
-95.09
-81.54
-60.81
-38.08
-19.13
-8.10
-5.40
-8.31
-12.98
-16.03
-15.98
-13.02
-8.88
-4.90
-2.40
-1.51
-1.16
0.46
5.31
13.86
25.48
37.62
47.49
52.60
52.05
46.45
37.45
27.75
19.47
14.66
13.90
16.96
22.37
28.05
32.39
34.15
32.86
27.83
18.54
4.78
-12.34
-29.93
-44.22
-51.56
-51.12
-44.34
-35.02
-27.12
-23.37
-24.16
-27.80
-31.96
-33.99
-32.83
-28.69
-23.49
-19.02
-16.39
-15.45
-14.70
-13.16
-10.44
-7.24
-4.08
-0.56
4.70
12.86
22.81
31.54
34.71
29.59
16.57
-0.85
-17.92
-31.54
-40.53
-45.78
-47.59
-45.50
-38.71
-28.13
-17.25
-10.73
-12.14
-20.38
-30.19
-34.02
-26.47
-7.01
19.61
45.68
64.59
72.71
70.52
61.18
48.70
36.55
27.10
21.87
20.85
23.36
27.77
32.56
36.67
39.55
40.86
39.48
34.63
25.92
14.90
4.28
-3.23
-6.14
-5.57
-3.99
-4.35
-7.51
-12.44
-16.75
-18.81
-18.34
-16.26
-13.56
-10.57
-7.36
-4.20
-2.03
-2.08
-4.23
-7.03
-7.69
-4.51
2.37
10.33
15.74
15.91
10.49
1.98
-6.06
-10.04
-8.69
-2.97
4.10
8.43
6.91
-1.75
-15.45
-29.59
-38.24
-37.12
-25.39
-6.41
13.62
28.69
35.26
33.46
26.15
17.30
10.22
6.20
5.25
5.80
6.33
5.38
2.56
-1.79
-7.00
-12.20
-17.08
-21.23
-24.73
-27.21
-28.27
-27.47
-24.80
-20.98
-16.82
-13.63
-12.23
-13.22
-16.37
-20.78
-25.00
-27.44
-27.32
-24.43
-19.85
-15.18
-11.91
-10.86
-11.54
-12.91
-13.21
-11.57
-7.63
-2.48
2.39
5.80
7.41
8.29
9.64
12.77
17.46
22.38
25.55
25.57
22.71
18.30
14.51
11.97
9.76
5.47
-2.86
-15.12
-28.41
-37.95
-39.65
-32.29
-18.84
-4.74
4.68
6.37
1.04
-8.34
-18.11
-26.17
-31.71
-35.23
-37.52
-39.51
-42.36
-47.18
-55.31
-66.62
-79.44
-90.00
-94.05
-88.10
-71.22
-45.98
-17.05
9.62
29.61
40.55
43.27
40.58
36.06
32.97
33.36
38.69
48.82
62.97
79.13
94.70
106.93
113.82
114.53
108.77
97.25
81.00
62.26
43.87
29.32
21.29
20.08
23.66
27.86
28.74
23.96
14.43
2.90
-7.82
-15.98
-22.14
-27.21
-31.75
-34.11
-31.72
-22.43
-6.12
14.12
33.50
46.64
50.65
45.46
34.18
21.29
10.90
5.79
6.19
10.85
16.94
21.71
22.79
19.09
10.96
-0.77
-14.34
-27.94
-39.06
-45.55
-45.98
-40.84
-33.24
-27.35
-26.72
-31.62
-39.04
-43.67
-40.87
-29.51
-12.01
6.72
22.27
31.54
34.26
31.38
24.05
13.42
0.30
-13.91
-27.46
-37.83
-43.16
-42.36
-35.86
-25.92
-15.49
-7.80
-4.25
-4.53
-6.34
-7.47
-7.39
-7.75
-11.57
-19.99
-31.36
-41.19
-45.34
-42.35
-34.25
-25.08
-17.27
-10.38
-1.13
12.68
30.17
46.82
56.78
56.82
48.24
36.89
29.38
30.06
38.56
50.63
60.68
64.16
59.41
46.93
29.38
10.08
-7.44
-20.59
-28.15
-30.01
-27.37
-21.22
-12.72
-2.79
7.11
15.14
19.40
18.37
12.50
3.75
-4.72
-10.41
-12.35
-11.55
-10.33
-10.20
-11.48
-12.94
-13.34
-12.12
-9.74
-6.90
-3.55
0.76
6.97
15.10
24.23
32.25
37.20
38.32
35.87
31.20
24.98
17.43
7.98
-3.65
-16.83
-29.71
-39.38
-43.52
-40.79
-32.00
-19.91
-8.75
-2.58
-2.93
-8.37
-14.59
-17.51
-15.23
-9.17
-2.74
0.93
0.51
-2.61
-6.61
-10.26
-13.86
-17.92
-22.10
-25.08
-24.82
-20.62
-12.73
-2.80
8.05
19.16
29.91
38.74
42.82
39.60
28.33
11.67
-5.30
-17.10
-20.19
-14.72
-3.75
7.98
16.83
20.67
19.46
14.28
6.65
-1.73
-9.54
-15.03
-16.54
-12.49
-2.71
10.84
24.29
32.38
31.29
20.11
2.49
-14.91
-25.07
-24.05
-12.75
3.94
19.18
27.77
28.06
22.42
15.12
9.83
8.22
9.26
11.02
11.44
10.03
7.35
4.44
1.74
-1.44
-5.61
-11.20
-17.57
-23.83
-28.74
-31.44
-31.56
-28.59
-22.67
-13.59
-1.92
11.42
25.03
37.24
46.45
50.87
49.76
42.93
31.41
16.87
1.28
-13.82
-28.23
-42.39
-57.61
-74.08
-91.10
-106.51
-118.09
-124.19
-123.89
-117.53
-105.65
-89.25
-68.97
-46.05
-22.28
-0.13
17.46
29.06
34.53
35.97
36.09
37.52
41.30
46.59
51.95
55.70
57.62
58.22
58.69
59.57
60.62
61.38
61.26
60.78
60.66
61.47
62.16
60.56
54.22
41.64
24.26
5.72
-8.81
-15.53
-13.32
-4.65
5.97
14.28
17.40
15.30
8.97
-0.55
-13.13
-28.81
-46.27
-62.43
-72.29
-71.89
-59.85
-38.86
-14.31
7.84
23.16
30.28
30.10
25.44
19.17
13.60
9.48
6.04
1.69
-5.51
-15.47
-26.19
-33.49
-33.49
-24.41
-7.91
11.11
27.58
37.97
42.10
41.68
38.94
34.59
27.81
18.06
5.91
-5.81
-13.99
-16.36
-13.35
-8.24
-5.34
-8.14
-17.00
-29.93
-42.65
-51.09
-52.51
-46.12
-32.95
-14.92
4.68
22.58
35.46
41.44
40.25
33.29
23.17
11.59
-0.40
-13.15
-26.85
-41.43
-55.45
-66.54
-72.39
-70.97
-62.02
-46.49
-26.96
-6.79
11.15
24.97
34.63
40.95
45.49
48.42
48.94
45.89
38.79
28.50
16.71
5.56
-4.05
-11.72
-17.18
-19.80
-18.69
-13.97
-6.81
0.02
4.02
3.56
-0.38
-5.53
-9.26
-9.69
-7.22
-3.22
0.26
2.23
3.04
4.32
8.13
15.41
25.86
36.80
44.94
47.51
44.29
37.66
31.45
28.63
28.83
29.33
26.28
17.86
5.84
-5.48
-12.25
-14.13
-14.29
-17.94
-28.05
-43.63
-59.26
-68.90
-69.31
-61.54
-50.29
-40.09
-32.75
-26.30
-17.26
-3.30
14.54
32.00
44.65
50.13
49.51
45.71
41.76
38.87
35.82
30.89
22.77
12.51
2.60
-4.25
-6.50
-4.29
0.58
5.57
9.18
10.49
9.79
7.85
5.89
5.21
6.36
8.91
10.88
10.22
5.62
-2.16
-10.82
-17.68
-21.30
-22.65
-23.87
-26.96
-31.75
-36.08
-36.65
-30.93
-19.29
-4.03
10.98
22.74
29.55
31.10
28.00
21.60
14.33
8.93
8.23
12.63
19.73
24.71
22.39
10.79
-8.03
-28.02
-43.10
-49.57
-48.20
-43.15
-38.90
-37.71
-38.12
-37.37
-32.63
-23.63
-12.25
-1.42
6.46
10.92
12.45
12.28
10.66
7.45
2.39
-3.73
-8.88
-10.88
-8.03
-0.64
9.81
20.99
31.05
38.74
42.94
42.86
37.19
26.07
10.99
-4.50
-16.15
-21.22
-19.81
-15.22
-10.98
-9.37
-9.44
-8.48
-3.85
5.19
16.98
28.91
38.09
42.96
42.49
36.48
25.18
9.89
-6.65
-21.33
-31.03
-34.70
-33.12
-28.31
-22.38
-17.02
-13.37
-11.91
-13.20
-16.64
-20.58
-22.18
-19.14
-11.56
-2.02
4.98
6.10
0.59
-8.92
-18.77
-26.41
-31.73
-36.68
-42.69
-49.68
-55.33
-56.81
-52.08
-40.97
-25.26
-7.44
9.54
23.23
31.40
32.82
28.05
19.60
11.43
6.88
7.56
12.33
18.76
24.93
30.80
37.74
46.48
55.95
62.90
63.81
56.59
42.50
26.13
12.94
7.42
9.96
17.53
24.30
25.30
18.15
4.66
-10.30
-21.54
-25.57
-22.39
-14.95
-7.52
-3.34
-3.17
-5.94
-9.26
-11.74
-12.80
-13.34
-14.57
-17.11
-20.81
-24.36
-26.31
-25.52
-22.25
-17.41
-12.37
-8.16
-4.76
-2.08
-0.05
-0.03
-3.39
-10.95
-20.97
-29.77
-32.93
-27.92
-15.89
-0.93
12.19
20.83
25.54
29.41
35.91
46.19
58.93
70.37
76.96
76.55
69.40
57.97
45.49
34.72
26.62
20.72
15.41
9.13
1.39
-7.33
-15.63
-22.35
-26.72
-29.43
-31.53
-33.98
-37.21
-41.18
-45.77
-50.34
-54.42
-56.96
-56.71
-52.84
-45.78
-37.65
-31.13
-28.82
-31.21
-36.85
-42.18
-43.14
-37.00
-23.47
-5.14
13.76
28.81
37.38
39.40
37.18
34.77
35.68
42.28
54.16
69.18
83.63
93.76
97.17
93.41
84.34
72.17
59.32
47.26
36.55
27.10
18.69
11.31
4.44
-1.89
-8.05
-13.77
-19.04
-24.02
-29.39
-36.16
-44.59
-54.28
-63.35
-69.39
-70.18
-65.14
-55.71
-44.69
-35.45
-30.09
-29.39
-32.12
-36.05
-39.06
-39.96
-39.03
-36.85
-34.32
-31.23
-26.32
-17.62
-4.08
13.32
31.70
46.82
55.81
57.61
53.76
47.43
41.78
38.50
37.10
36.08
33.51
28.63
22.10
16.01
12.68
12.94
15.85
18.97
19.93
16.87
9.67
-0.52
-11.75
-21.94
-29.99
-34.95
-36.61
-35.15
-31.69
-28.05
-26.45
-28.97
-36.16
-47.14
-58.70
-67.15
-69.60
-64.87
-53.63
-37.47
-18.90
0.10
17.50
31.59
40.13
41.25
34.69
22.02
7.22
-5.02
-10.70
-9.06
-2.24
5.63
10.68
11.67
9.35
6.39
4.95
6.19
9.72
14.83
20.90
27.40
33.79
38.03
37.82
31.23
18.09
0.57
-17.80
-33.37
-44.59
-51.30
-54.71
-55.30
-52.33
-44.19
-29.33
-8.56
15.13
36.79
52.30
59.57
59.76
56.37
52.82
51.13
50.38
48.27
42.24
31.24
16.17
0.03
-13.40
-21.47
-23.13
-19.66
-13.78
-8.21
-4.41
-2.08
-0.21
2.35
5.06
6.38
4.12
-2.84
-13.47
-25.11
-33.76
-36.42
-31.29
-18.90
-1.34
17.97
34.78
45.14
46.17
37.55
20.88
-0.43
-22.53
-42.14
-57.05
-66.06
-68.26
-64.22
-55.71
-45.90
-38.13
-34.21
-33.26
-31.27
-24.02
-8.92
12.25
34.52
51.80
60.11
59.50
52.71
43.83
35.15
27.50
20.75
15.33
12.74
14.39
20.36
28.12
33.77
33.42
25.61
12.13
-3.00
-14.92
-20.87
-20.80
-17.84
-15.75
-17.27
-22.21
-27.50
-29.15
-24.07
-12.83
1.31
13.69
21.04
23.05
21.73
20.02
19.02
18.18
15.40
9.33
1.07
-5.86
-7.31
-1.28
11.11
25.04
34.97
36.79
30.09
18.04
4.96
-5.33
-11.99
-15.89
-19.00
-22.07
-24.41
-24.68
-22.35
-18.99
-16.44
-16.29
-17.94
-18.87
-16.25
-8.56
3.04
15.86
26.49
33.11
35.59
34.98
32.63
28.91
23.58
15.94
6.27
-4.69
-15.36
-24.48
-31.48
-36.57
-41.04
-45.79
-51.52
-57.39
-62.03
-63.94
-62.52
-58.57
-53.44
-48.74
-44.44
-39.32
-31.43
-19.69
-4.75
11.47
26.47
39.10
49.28
58.18
66.45
73.15
76.13
72.63
61.31
42.81
20.09
-2.63
-20.81
-31.11
-32.06
-24.02
-9.74
7.04
22.11
32.50
36.81
35.41
29.97
22.11
13.52
4.90
-3.14
-10.03
-14.84
-16.50
-14.64
-9.56
-2.80
4.07
8.94
10.39
8.08
2.97
-2.63
-6.55
-7.20
-5.08
-2.54
-2.68
-7.23
-15.13
-23.12
-26.55
-22.65
-11.49
3.64
18.56
30.43
38.78
45.86
53.92
64.15
74.61
81.52
80.98
71.43
55.20
37.52
24.68
20.11
23.50
30.55
35.57
34.68
27.28
16.24
4.69
-5.59
-15.85
-28.19
-43.55
-59.85
-72.24
-76.32
-70.21
-56.34
-39.82
-26.15
-18.67
-17.39
-19.90
-22.55
-22.99
-19.93
-13.88
-6.06
1.76
7.62
9.65
6.08
-3.49
-18.14
-35.31
-51.46
-63.80
-70.77
-72.55
-70.26
-65.68
-60.06
-54.53
-49.92
-47.04
-46.26
-47.01
-47.79
-46.09
-40.26
-30.00
-16.83
-3.62
7.02
13.50
16.43
17.34
18.22
20.11
23.22
27.32
32.17
38.22
45.97
55.39
64.98
71.73
72.37
64.68
49.21
28.87
8.15
-9.13
-20.95
-27.26
-29.27
-28.22
-24.80
-19.11
-12.33
-6.34
-3.61
-5.58
-11.01
-16.87
-18.79
-14.42
-3.80
10.22
24.42
36.51
45.74
52.43
56.10
55.67
49.85
38.93
25.31
13.09
5.77
3.72
4.89
5.65
4.00
0.23
-3.35
-4.44
-2.55
0.99
3.57
4.02
2.70
2.05
4.76
12.03
23.07
34.33
41.49
40.73
31.18
14.98
-2.63
-15.54
-19.45
-13.69
-1.99
10.11
17.82
19.61
16.78
11.77
6.51
0.87
-5.24
-11.25
-14.81
-14.04
-8.98
-3.25
-3.07
-13.44
-35.18
-62.90
-87.58
-100.27
-96.81
-79.62
-55.06
-30.38
-10.01
4.61
14.56
20.69
22.95
20.73
13.82
4.22
-4.96
-10.35
-10.66
-6.98
-1.99
1.64
3.75
6.01
11.28
20.92
34.28
48.19
58.84
63.43
60.98
53.26
43.15
33.75
26.48
21.27
16.73
10.81
2.78
-7.14
-17.30
-26.14
-32.62
-37.22
-41.25
-45.63
-50.53
-54.13
-54.16
-48.97
-39.10
-26.92
-15.39
-6.61
-0.37
4.59
9.91
15.66
20.38
21.96
19.00
12.27
3.82
-3.34
-7.51
-8.63
-8.51
-9.07
-10.94
-13.73
-15.67
-15.38
-12.15
-6.53
0.67
8.33
15.46
21.30
24.02
21.76
13.34
-0.55
-16.84
-30.45
-36.29
-31.82
-17.33
3.38
24.96
42.35
52.23
53.82
48.38
39.04
28.83
20.23
14.02
9.85
6.69
3.59
0.84
-1.00
-1.04
0.80
4.02
7.49
9.98
10.46
7.87
2.37
-4.91
-11.79
-15.76
-15.63
-12.52
-9.86
-10.93
-17.19
-26.21
-33.44
-34.77
-29.53
-20.93
-13.35
-9.34
-7.40
-3.70
5.09
18.70
32.46
40.26
37.49
24.15
3.91
-17.38
-35.01
-46.74
-52.64
-54.25
-52.40
-47.54
-39.34
-27.82
-13.52
2.58
19.08
35.19
50.05
63.21
73.61
80.37
82.81
81.32
77.68
73.47
69.58
64.80
56.96
43.95
25.69
4.95
-14.56
-29.66
-40.21
-47.93
-55.31
-62.69
-68.00
-68.36
-62.08
-51.16
-39.82
-32.56
-31.02
-33.64
-37.08
-38.44
-37.35
-35.02
-33.49
-32.82
-31.57
-27.58
-19.65
-8.82
2.37
10.39
13.29
10.67
4.42
-1.91
-4.40
0.03
11.88
29.19
47.00
60.07
64.42
59.70
48.93
36.42
26.11
19.00
13.70
7.55
-0.76
-10.24
-18.13
-21.61
-20.36
-16.33
-13.15
-13.48
-17.24
-21.89
-23.48
-19.33
-9.07
4.42
17.60
27.43
32.80
34.43
33.30
29.82
23.29
13.61
1.52
-10.97
-21.72
-29.42
-33.68
-35.36
-34.46
-30.64
-23.32
-12.82
-0.95
9.35
15.38
16.80
15.05
12.93
12.45
13.90
16.15
17.49
17.18
15.23
12.62
9.84
7.75
7.56
10.99
19.57
32.93
48.61
61.53
66.92
62.14
48.03
28.40
7.68
-9.89
-22.26
-28.65
-29.79
-26.94
-21.82
-16.21
-11.09
-7.11
-3.62
-0.39
2.04
1.56
-4.58
-17.91
-37.51
-59.51
-79.37
-93.38
-100.68
-102.08
-98.22
-88.53
-71.64
-47.87
-20.38
4.53
20.65
24.96
19.34
9.76
2.17
0.01
2.56
7.22
11.28
13.67
14.71
14.57
13.30
10.31
6.26
2.50
0.66
1.44
3.65
5.52
5.28
2.76
-1.16
-4.70
-6.94
-7.69
-6.66
-3.81
1.38
8.36
15.79
21.07
21.84
17.25
8.25
-2.25
-11.17
-15.87
-16.00
-12.77
-8.40
-4.73
-1.71
2.24
9.97
22.84
39.87
56.44
66.33
64.85
51.02
29.48
7.76
-6.89
-11.43
-7.70
-0.95
3.66
4.63
3.66
4.64
9.75
18.54
28.00
35.14
38.77
39.07
37.07
32.43
24.12
11.10
-5.74
-23.15
-36.71
-42.35
-38.71
-27.06
-11.67
2.57
11.66
13.71
10.01
4.06
0.61
3.16
12.56
26.24
39.32
47.36
47.84
41.63
31.25
20.24
11.26
6.18
5.62
9.08
15.21
21.35
25.26
25.43
22.13
16.66
10.39
4.21
-1.90
-7.82
-13.45
-17.85
-20.76
-23.18
-27.24
-35.71
-49.64
-68.10
-87.94
-105.63
-118.39
-124.58
-123.47
-114.07
-96.26
-70.87
-41.19
-11.60
13.59
32.20
44.96
54.16
62.12
69.26
74.75
76.72
74.27
68.02
59.49
50.29
40.75
30.58
18.83
5.71
-7.75
-19.31
-26.32
-27.30
-21.98
-12.28
-1.25
7.77
12.92
14.35
13.81
13.81
15.10
17.03
17.52
14.99
9.04
0.56
-8.87
-18.47
-28.29
-39.40
-51.83
-63.85
-72.31
-73.56
-65.55
-48.97
-27.96
-8.26
5.06
10.02
7.78
1.80
-4.37
-9.23
-13.04
-17.02
-21.03
-23.12
-20.57
-11.99
0.80
13.62
21.51
22.41
18.12
13.48
13.60
20.75
33.79
48.29
59.77
65.19
64.00
58.03
49.65
40.90
32.25
23.80
15.21
6.52
-1.81
-9.04
-14.48
-18.02
-20.00
-21.36
-22.58
-23.65
-23.75
-21.54
-16.42
-8.56
0.71
9.97
18.04
24.62
29.48
31.95
31.21
25.73
15.30
1.14
-13.48
-24.84
-30.42
-29.86
-25.41
-20.13
-17.04
-16.78
-17.92
-17.61
-13.18
-4.12
7.98
19.57
27.81
31.17
30.44
27.51
23.69
18.81
11.01
-0.84
-16.43
-32.94
-46.33
-53.01
-51.77
-44.54
-34.20
-23.49
-13.24
-3.35
6.58
15.55
21.12
21.17
15.07
5.21
-4.55
-10.09
-9.76
-4.94
0.95
4.34
4.01
0.78
-2.68
-4.89
-6.33
-9.28
-15.94
-25.80
-35.51
-39.49
-33.72
-17.49
5.42
28.77
47.36
58.85
64.81
68.26
71.75
74.93
75.34
69.89
56.85
37.29
13.91
-9.36
-29.15
-42.76
-48.70
-47.21
-40.27
-31.78
-25.79
-25.38
-30.37
-37.78
-43.18
-42.66
-35.56
-24.43
-14.11
-8.42
-8.65
-12.54
-15.79
-14.76
-8.13
1.83
11.26
16.33
15.76
11.38
6.41
3.40
2.09
0.28
-4.96
-14.27
-25.80
-36.02
-41.77
-42.62
-40.16
-37.04
-34.54
-32.72
-30.51
-27.07
-22.80
-18.16
-13.38
-7.48
0.35
10.19
20.68
29.98
37.55
44.10
51.74
61.45
72.58
82.15
86.62
84.25
75.61
63.97
52.52
43.18
35.01
25.57
12.52
-4.67
-23.32
-39.44
-49.08
-50.81
-45.70
-36.71
-26.65
-16.81
-7.79
0.26
5.87
7.10
2.69
-6.00
-15.14
-20.28
-18.01
-8.96
3.35
13.52
17.74
15.42
8.88
1.97
-2.85
-4.82
-5.67
-7.12
-9.97
-12.95
-13.07
-7.82
4.09
21.04
40.07
57.90
72.74
84.16
91.74
94.43
89.30
73.97
47.50
12.32
-26.50
-62.42
-89.41
-103.89
-104.59
-93.49
-74.29
-52.25
-32.86
-20.19
-16.03
-18.78
-24.68
-28.45
-26.74
-18.78
-7.03
4.49
12.45
15.16
13.27
8.16
1.48
-6.05
-13.73
-20.42
-24.73
-24.89
-20.46
-12.61
-4.18
1.95
4.16
2.84
0.18
-1.61
-1.08
1.14
3.65
5.13
4.85
3.44
2.12
2.35
4.39
8.23
13.27
19.01
25.48
32.38
39.22
44.35
46.05
42.82
34.90
24.18
13.60
6.18
2.99
3.62
6.03
7.73
6.48
1.03
-8.18
-19.44
-29.64
-35.92
-36.32
-31.00
-21.73
-10.85
-0.90
6.50
10.23
10.44
7.43
2.35
-3.17
-7.68
-9.78
-9.77
-8.61
-8.47
-10.85
-16.51
-24.60
-33.17
-40.04
-43.06
-41.72
-36.82
-30.53
-25.04
-21.28
-18.53
-14.56
-7.64
2.64
14.81
26.89
37.06
44.18
47.78
46.82
40.51
28.23
11.93
-4.63
-16.67
-21.02
-17.95
-10.36
-2.57
2.78
5.24
6.48
8.41
11.56
15.37
18.35
20.21
21.37
22.98
25.61
28.84
31.79
33.45
33.77
32.89
31.52
30.12
29.04
28.28
27.13
24.25
17.43
5.82
-9.93
-26.51
-39.48
-45.07
-41.97
-32.07
-18.76
-5.76
4.99
12.87
17.41
17.67
12.05
0.36
-15.58
-31.06
-40.96
-41.89
-34.14
-22.06
-11.38
-6.91
-9.71
-17.56
-25.89
-30.45
-29.23
-22.78
-13.48
-3.70
4.39
10.31
14.30
17.17
19.78
22.75
26.54
30.73
35.03
38.31
39.60
38.21
34.00
27.59
19.65
10.96
1.29
-9.76
-22.65
-37.06
-51.03
-61.80
-66.22
-62.83
-52.23
-37.86
-24.44
-16.04
-14.50
-18.39
-24.36
-28.11
-27.27
-21.41
-12.13
-1.66
8.44
17.52
26.12
34.83
44.15
53.09
59.87
62.84
60.89
54.62
45.49
35.42
25.02
14.19
2.28
-11.13
-24.91
-36.93
-44.45
-46.03
-41.56
-33.01
-23.17
-14.35
-8.16
-4.82
-4.31
-6.07
-9.63
-13.69
-16.48
-16.15
-11.15
-1.77
9.90
19.99
25.10
23.76
17.53
10.86
7.94
10.92
17.61
22.91
20.87
8.52
-12.29
-35.70
-53.57
-59.84
-52.31
-33.62
-9.30
14.43
32.46
42.24
42.81
34.91
19.93
0.44
-20.11
-37.52
-47.57
-47.61
-36.95
-18.03
4.88
26.38
42.01
49.05
46.96
37.98
25.61
13.96
5.93
2.93
4.59
9.30
15.32
20.84
25.08
27.27
26.93
23.65
17.04
7.32
-4.83
-17.54
-28.73
-35.68
-36.64
-31.57
-22.62
-13.80
-8.82
-9.96
-16.33
-25.24
-33.51
-39.46
-43.03
-44.70
-44.82
-42.52
-37.43
-30.16
-23.01
-18.50
-17.60
-19.23
-20.41
-18.86
-13.45
-5.18
4.52
15.15
27.15
41.20
56.57
71.29
82.28
87.91
88.71
86.80
84.29
81.19
75.87
65.91
50.92
32.88
15.49
2.17
-6.17
-10.73
-13.98
-17.01
-19.32
-19.17
-15.73
-10.53
-6.75
-7.72
-14.32
-24.82
-35.43
-43.16
-47.55
-50.32
-53.78
-58.63
-63.66
-66.08
-63.73
-56.60
-46.58
-36.54
-28.19
-21.73
-15.42
-7.50
2.86
15.08
27.31
37.91
44.98
47.49
44.87
37.50
27.09
16.26
8.12
4.16
4.12
5.92
7.63
8.18
8.40
10.43
15.49
22.85
29.61
32.59
29.82
21.80
11.71
3.36
0.07
2.66
9.79
17.87
23.24
23.23
17.25
7.13
-4.55
-14.88
-22.68
-27.78
-30.59
-31.00
-27.97
-20.72
-9.16
4.62
17.41
25.44
27.07
23.30
17.44
13.65
14.20
18.64
23.38
23.96
17.31
3.56
-13.90
-30.87
-44.30
-54.24
-62.78
-72.45
-83.34
-92.79
-96.82
-92.51
-80.71
-64.99
-50.00
-38.44
-30.15
-22.36
-12.03
1.74
17.64
32.16
42.24
46.31
44.73
39.67
33.69
29.11
26.63
26.11
26.36
26.62
26.77
27.92
31.78
38.94
48.32
57.12
62.35
61.87
55.57
45.28
33.42
22.80
15.08
11.36
11.59
15.02
19.19
20.68
16.38
4.51
-12.97
-31.64
-46.18
-53.25
-53.36
-49.74
-46.22
-43.72
-40.54
-33.45
-21.22
-5.80
8.09
16.04
17.48
15.51
15.19
19.67
28.37
37.02
40.64
36.81
26.29
13.07
1.28
-6.24
-9.15
-8.49
-5.93
-3.24
-1.42
-1.48
-3.39
-6.66
-9.76
-10.84
-8.54
-2.29
6.55
15.72
22.05
22.89
17.23
6.84
-4.29
-11.82
-12.43
-6.30
3.79
13.44
19.09
19.68
16.70
13.29
11.62
12.50
14.57
15.65
13.48
6.54
-5.07
-20.23
-36.36
-50.61
-59.99
-63.15
-60.70
-54.58
-47.35
-40.45
-34.77
-30.12
-26.51
-24.40
-24.45
-26.75
-29.79
-31.10
-27.66
-18.23
-3.85
12.38
26.16
34.45
36.11
33.07
28.17
24.62
23.85
25.59
28.11
29.13
27.83
24.36
20.19
16.64
14.70
14.41
14.88
15.18
14.00
10.93
6.02
0.80
-2.97
-4.14
-2.92
-1.70
-2.96
-8.43
-16.86
-25.35
-30.78
-31.83
-30.27
-29.13
-31.46
-37.38
-44.56
-49.09
-48.32
-41.80
-31.56
-21.35
-14.01
-11.05
-11.47
-13.00
-12.71
-8.66
-1.53
6.16
10.54
9.44
3.39
-3.31
-5.00
2.51
20.14
44.16
68.92
88.60
100.28
103.48
99.50
89.86
75.04
55.35
31.49
6.11
-17.07
-33.90
-42.01
-41.47
-34.98
-27.07
-21.71
-21.28
-25.01
-29.96
-32.49
-29.83
-22.03
-10.90
0.63
10.99
19.94
28.15
35.54
40.07
39.08
30.37
14.61
-4.64
-22.10
-33.31
-36.58
-32.80
-24.87
-15.41
-6.60
0.59
5.13
6.03
2.55
-5.48
-16.98
-30.20
-42.65
-52.07
-56.64
-55.46
-49.19
-39.85
-31.19
-26.43
-27.27
-32.10
-36.62
-35.71
-26.02
-8.54
12.52
31.39
44.07
50.00
51.43
51.60
52.21
52.84
51.69
48.30
43.92
41.26
42.57
47.47
53.26
55.76
52.66
43.92
32.18
20.74
11.56
4.64
-1.42
-7.50
-13.79
-18.99
-21.58
-20.35
-14.89
-5.89
5.67
17.94
28.63
34.88
34.89
28.60
18.17
7.60
1.06
0.78
5.49
11.75
15.37
13.91
7.83
-0.23
-6.80
-9.64
-8.26
-4.26
0.18
3.39
4.46
3.51
0.90
-2.82
-7.30
-11.72
-15.14
-16.61
-15.51
-13.01
-11.09
-11.85
-15.63
-21.00
-25.25
-25.86
-22.39
-16.25
-9.78
-4.50
-0.67
2.42
4.75
4.81
0.39
-9.76
-24.13
-38.56
-47.96
-49.39
-44.15
-36.70
-32.60
-34.60
-41.93
-50.65
-56.30
-56.18
-49.93
-39.02
-24.85
-8.93
7.82
23.80
36.81
44.55
45.38
40.43
32.62
26.47
25.36
30.12
38.35
45.80
48.40
43.38
30.72
12.12
-8.82
-27.84
-40.72
-44.09
-36.92
-20.99
-1.46
15.09
22.31
16.79
-0.26
-23.79
-47.31
-65.44
-74.90
-75.41
-67.81
-53.85
-35.56
-15.27
4.00
19.77
30.20
35.25
36.29
35.31
33.90
32.35
30.23
26.45
20.87
14.01
7.23
1.89
-1.50
-3.17
-4.39
-6.25
-9.55
-13.95
-18.05
-20.20
-19.25
-15.64
-10.90
-7.23
-6.00
-7.39
-9.67
-10.77
-8.97
-3.85
3.43
10.98
16.77
19.73
20.05
18.94
18.44
20.04
24.56
31.03
37.37
40.91
39.44
33.08
23.87
15.39
10.49
10.43
13.96
18.34
20.73
19.40
14.69
7.95
1.42
-3.18
-4.62
-2.68
2.62
10.83
20.59
29.20
31.86
23.17
-0.55
-38.12
-82.24
-120.73
-141.16
-136.98
-110.33
-71.48
-33.39
-5.36
10.17
17.60
23.33
31.37
41.14
49.85
55.69
60.35
68.99
86.74
115.38
152.00
190.74
225.71
254.03
276.18
294.53
311.60
328.33
344.41
358.86
370.46
377.70
378.12
367.81
341.09
293.79
224.66
136.27
34.47
-73.84
-182.59
-287.62
-386.13
-476.27
-556.13
-624.61
-681.36
-726.73
-762.25
-789.85
-811.00
-826.27
-835.04
-835.89
-827.20
-810.12
-785.00
-752.88
-715.31
-674.15
-631.21
-587.66
-543.96
-500.04
-455.54
-409.54
-361.31
-310.28
-255.76
-197.14
-133.46
-63.57
13.60
98.69
192.30
294.42
403.75
517.24
630.86
740.66
842.70
933.17
1008.49
1065.74
1102.50
1117.12
1109.03
1078.12
1025.89
954.79
868.01
769.18
661.99
550.07
436.56
329.70
232.36
145.31
68.28
0.71
-57.74
-107.13
-147.30
-178.20
-200.09
-214.21
-221.77
-224.03
-222.08
-216.50
-207.31
-193.96
-175.70
-154.21
-131.28
-108.37
-86.65
-66.88
-48.90
-31.92
-14.38
5.49
29.47
58.57
92.79
130.58
168.55
202.30
226.73
237.66
233.13
214.37
185.91
154.12
125.25
103.42
90.23
84.76
84.95
88.86
95.18
103.13
111.60
118.87
120.79
114.31
97.92
72.01
38.51
-0.13
-41.37
-83.23
-124.12
-163.01
-198.75
-230.77
-258.69
-282.40
-301.95
-317.24
-328.27
-335.09
-338.03
-337.55
-334.26
-328.76
-321.19
-311.03
-297.14
-278.58
-254.70
-225.76
-192.86
-157.39
-120.40
-82.17
-42.80
-3.13
34.30
66.17
90.26
106.81
118.86
129.75
140.23
147.32
145.88
132.44
108.82
82.54
63.49
58.61
67.47
82.28
92.06
88.62
71.23
45.79
21.06
3.64
-4.42
-4.93
-1.27
4.45
11.70
20.34
28.44
32.11
26.93
11.14
-12.33
-36.33
-52.48
-56.38
-49.55
-38.60
-31.77
-34.17
-45.52
-60.45
-72.23
-75.80
-70.09
-57.33
-41.00
-24.06
-8.30
4.75
13.81
17.20
13.90
4.21
-10.06
-25.81
-39.96
-50.04
-55.06
-54.91
-50.14
-41.47
-29.85
-16.68
-4.49
3.58
5.34
0.43
-8.58
-16.77
-19.56
-15.13
-5.61
4.63
11.67
14.70
15.55
16.71
19.21
21.39
20.63
15.72
8.82
3.95
4.45
10.81
20.05
28.23
32.99
35.19
37.08
39.98
43.12
44.06
41.01
34.48
26.86
19.68
11.85
-0.13
-19.32
-44.58
-68.67
-80.96
-72.95
-43.95
-2.73
36.81
62.23
68.14
58.30
41.39
25.88
15.92
10.98
8.04
4.63
0.63
-3.27
-6.43
-9.57
-13.33
-17.68
-21.24
-22.40
-20.91
-17.66
-14.73
-12.51
-9.53
-3.29
7.53
21.33
33.48
38.47
33.11
18.18
-1.46
-19.30
-30.16
-31.80
-26.00
-16.48
-7.75
-2.95
-3.26
-7.18
-11.61
-13.58
-11.21
-5.15
2.54
9.17
13.72
17.00
20.93
26.75
32.73
35.06
28.79
11.43
-14.99
-44.08
-67.40
-78.45
-75.42
-62.05
-45.01
-31.01
-23.66
-22.23
-23.50
-23.52
-20.32
-14.08
-6.85
-0.32
5.23
11.23
19.54
30.10
40.57
46.57
45.04
36.48
25.31
18.04
18.99
28.15
40.55
49.73
51.10
44.29
32.69
20.50
10.86
4.00
-1.87
-8.53
-16.13
-23.17
-27.26
-26.29
-20.04
-9.86
1.04
9.03
11.37
7.40
-0.34
-7.39
-9.22
-4.67
3.30
8.48
5.12
-8.42
-28.66
-48.43
-61.06
-63.22
-56.66
-46.48
-38.32
-35.81
-39.29
-47.04
-56.27
-65.16
-73.12
-80.10
-85.74
-89.19
-89.30
-85.13
-77.07
-66.55
-55.73
-46.15
-37.71
-28.78
-17.15
-2.20
14.36
28.63
36.76
37.14
31.56
24.34
19.95
21.34
28.94
41.68
57.86
76.31
96.44
117.30
137.40
154.39
166.29
171.81
171.16
165.81
157.82
148.98
140.12
131.04
121.01
109.42
96.44
83.15
71.16
61.89
55.93
52.69
50.62
47.99
43.80
38.09
31.75
25.93
21.29
17.50
13.27
6.72
-4.37
-21.92
-47.08
-79.50
-116.61
-153.27
-182.59
-197.03
-192.53
-170.16
-135.90
-98.40
-65.62
-42.17
-28.48
-22.04
-19.61
-19.18
-20.19
-22.76
-26.71
-31.09
-34.60
-36.45
-36.90
-37.06
-38.54
-42.45
-48.88
-56.96
-65.46
-73.44
-80.72
-87.84
-95.63
-104.76
-115.22
-126.22
-136.67
-145.54
-152.38
-157.18
-160.16
-161.07
-158.90
-152.07
-138.75
-117.78
-89.09
-54.20
-15.61
23.97
62.50
99.26
134.83
170.75
208.65
249.38
291.88
332.62
365.81
384.80
384.18
361.99
321.05
267.84
210.96
157.78
111.98
73.35
39.36
8.00
-20.44
-43.44
-58.38
-64.62
-64.94
-64.63
-68.91
-80.59
-98.92
-120.96
-142.88
-161.39
-173.45
-175.54
-164.50
-139.28
-103.42
-65.37
-35.83
-22.53
-25.74
-37.42
-45.38
-40.22
-20.54
6.28
28.80
38.26
33.06
18.80
4.17
-4.47
-6.19
-4.51
-4.16
-7.37
-12.61
-15.81
-13.25
-3.86
10.18
24.41
34.70
38.96
37.88
34.45
32.14
33.30
38.15
44.89
50.71
53.21
51.47
46.40
40.24
35.42
33.60
34.99
38.41
41.93
43.86
43.42
41.01
37.91
35.63
35.18
36.46
38.45
39.52
38.26
33.99
27.19
19.31
12.02
6.62
3.34
1.49
-0.29
-3.28
-7.93
-13.54
-18.44
-20.90
-20.11
-16.79
-12.93
-11.24
-13.88
-21.97
-35.72
-54.78
-78.68
-104.81
-129.25
-145.53
-147.18
-131.34
-101.58
-67.22
-38.87
-22.77
-17.54
-16.56
-12.16
-2.01
9.34
13.74
5.20
-16.06
-43.96
-70.05
-88.36
-96.91
-96.61
-88.55
-73.08
-50.60
-22.97
3.82
22.93
29.55
23.29
8.00
-10.75
-28.03
-41.36
-50.64
-56.74
-59.87
-59.14
-53.11
-39.80
-17.91
12.67
49.79
88.81
122.94
144.89
148.81
132.54
98.69
54.47
10.03
-23.73
-37.41
-25.47
12.07
68.29
130.45
182.76
211.10
207.28
171.76
112.70
42.10
-28.51
-90.33
-136.79
-162.66
-164.04
-140.61
-98.17
-48.70
-7.11
14.37
11.68
-9.36
-36.57
-56.56
-61.24
-50.60
-30.78
-9.43
8.37
21.54
31.55
40.02
47.27
52.31
53.70
50.91
44.82
37.53
31.25
27.43
26.23
26.59
26.88
25.59
22.23
17.34
12.25
8.28
6.18
5.87
6.52
7.03
6.48
4.58
1.71
-1.31
-3.71
-5.01
-5.20
-4.69
-4.05
-3.86
-4.49
-5.98
-8.11
-10.48
-12.60
-14.05
-14.58
-14.19
-13.29
-12.46
-12.45
-13.70
-16.18
-19.26
-22.01
-23.55
-23.49
-22.23
-20.81
-20.50
-22.15
-25.81
-30.55
-34.88
-37.56
-37.94
-36.49
-34.38
-33.02
-33.55
-36.67
-42.68
-51.15
-60.40
-67.17
-67.19
-56.61
-34.19
-2.56
32.28
63.12
84.62
95.31
97.57
95.53
92.71
90.31
87.41
82.69
75.81
68.23
62.22
59.81
60.58
62.62
63.32
60.56
53.97
44.81
35.57
28.80
26.37
29.05
36.86
48.87
62.15
73.38
77.72
70.82
51.04
20.99
-12.88
-42.55
-61.84
-68.92
-66.43
-59.74
-53.87
-51.25
-51.20
-51.36
-49.46
-44.77
-38.16
-31.40
-26.28
-23.91
-24.66
-28.49
-35.20
-43.94
-52.80
-58.44
-56.72
-44.30
-20.70
10.23
40.67
61.38
65.42
51.22
23.46
-8.91
-36.56
-53.08
-57.21
-52.05
-42.25
-31.41
-20.97
-10.87
-0.97
7.93
14.14
16.05
13.52
8.24
3.06
0.62
2.35
7.67
14.38
19.75
21.68
19.66
14.92
9.88
6.98
7.66
11.78
17.62
22.80
25.25
24.08
19.94
14.60
10.12
7.63
7.05
6.91
5.21
0.27
-8.63
-21.35
-37.13
-54.75
-72.25
-86.20
-93.16
-89.87
-75.27
-51.49
-23.51
2.61
22.23
33.67
38.29
38.81
37.69
36.00
33.77
30.98
28.39
27.43
29.30
33.98
39.82
44.66
46.67
45.29
41.62
37.65
35.53
36.85
42.30
51.20
61.29
68.77
69.17
59.06
37.78
8.58
-22.40
-48.15
-63.67
-67.77
-63.03
-53.96
-44.55
-36.88
-31.09
-26.64
-23.33
-21.83
-23.00
-26.90
-32.49
-37.60
-40.28
-39.41
-35.46
-29.96
-24.78
-21.17
-19.38
-18.89
-18.48
-17.35
-15.41
-13.50
-12.61
-13.36
-15.57
-18.25
-20.64
-21.94
-22.45
-23.39
-26.40
-32.99
-44.27
-60.82
-80.66
-102.72
-123.15
-136.58
-137.75
-124.02
-97.21
-63.51
-31.27
-7.69
3.66
4.28
-1.52
-8.97
-14.95
-18.62
-20.52
-21.34
-20.86
-18.55
-12.95
-3.54
9.45
25.34
43.04
61.61
80.09
97.63
112.45
124.49
133.70
140.19
144.13
145.92
146.42
146.91
148.51
151.03
152.44
148.63
135.32
110.45
75.93
37.53
2.61
-22.97
-37.08
-41.41
-40.08
-36.83
-33.55
-30.11
-25.85
-20.89
-16.44
-14.16
-14.76
-17.51
-20.33
-21.03
-18.17
-12.13
-4.83
1.23
4.09
3.25
-0.22
-4.17
-6.74
-6.95
-5.55
-4.53
-6.13
-12.13
-23.35
-39.74
-60.07
-81.95
-101.50
-113.76
-115.04
-104.09
-83.32
-58.27
-35.59
-20.21
-13.67
-14.02
-17.66
-21.58
-24.60
-27.29
-30.72
-35.31
-40.16
-43.93
-45.67
-45.46
-44.36
-43.58
-43.94
-45.11
-45.90
-44.63
-39.95
-31.37
-19.41
-5.36
9.25
23.13
35.65
46.22
55.40
63.49
70.52
76.19
80.05
81.72
81.13
78.97
75.57
71.68
67.78
64.07
60.43
56.51
52.24
47.09
40.98
33.98
26.47
18.76
11.21
4.14
-2.14
-7.38
-11.34
-13.79
-14.56
-13.55
-10.98
-7.07
-2.21
3.09
8.31
12.87
16.29
18.14
18.18
16.11
12.09
6.31
-0.78
-8.68
-16.77
-24.33
-30.65
-35.17
-37.79
-38.09
-36.13
-32.23
-26.98
-21.10
-15.26
-9.93
-5.76
-3.53
-3.02
-4.24
-7.12
-11.42
-16.79
-22.70
-29.62
-35.30
-39.88
-42.62
-43.13
-41.14
-36.47
-28.91
-18.29
-3.94
13.37
29.02
42.21
52.60
59.95
64.26
65.73
64.98
66.88
69.63
71.42
71.66
69.67
65.08
58.18
49.79
35.98
20.24
4.79
-9.20
-21.21
-31.63
-40.83
-48.52
-52.77
-52.35
-45.57
-33.14
-16.60
2.27
21.72
40.61
59.07
73.04
82.88
90.67
97.38
103.91
110.83
117.38
120.89
117.01
101.29
72.35
33.10
-10.19
-49.31
-77.45
-91.95
-94.81
-90.89
-85.01
-79.33
-73.68
-67.31
-59.93
-52.50
-46.66
-43.63
-43.33
-44.48
-44.95
-43.05
-38.58
-32.55
-26.58
-22.19
-20.11
-20.05
-20.90
-21.21
-20.00
-17.17
-13.35
-9.55
-6.69
-5.17
-4.80
-4.93
-4.75
-3.81
-2.09
0.03
2.05
3.62
4.65
5.35
6.05
6.98
8.16
9.35
10.27
10.73
10.88
11.09
11.68
12.92
14.64
16.41
17.58
17.75
16.90
15.40
13.88
12.69
11.86
10.75
8.32
3.56
-4.02
-14.05
-25.31
-35.93
-44.85
-51.41
-55.88
-59.12
-62.06
-65.43
-69.74
-75.50
-82.48
-89.66
-94.52
-93.53
-83.44
-63.14
-34.81
-3.62
24.22
43.97
54.04
56.12
53.63
49.73
46.07
42.86
39.80
37.01
35.23
35.11
36.60
38.65
39.79
39.04
36.34
32.85
30.14
29.45
30.95
33.67
36.21
37.16
35.90
32.90
29.33
26.64
26.19
28.99
35.05
42.88
49.18
49.57
40.49
20.91
-6.38
-35.33
-58.92
-72.03
-73.36
-65.07
-52.23
-39.10
-27.77
-18.14
-9.25
-0.68
6.85
12.23
14.77
14.78
13.74
13.29
14.70
18.12
22.72
27.19
30.44
32.05
32.30
32.11
32.47
33.93
36.31
38.82
40.28
39.83
37.04
32.02
25.44
18.06
10.53
3.18
-3.59
-10.03
-16.13
-21.72
-26.48
-30.03
-32.15
-32.80
-32.44
-31.22
-29.61
-27.91
-26.30
-24.86
-23.51
-22.23
-20.97
-19.78
-18.63
-17.64
-16.79
-16.02
-15.25
-14.37
-13.35
-12.27
-11.28
-10.54
-10.22
-10.28
-10.58
-10.85
-10.86
-10.52
-9.96
-9.47
-9.37
-9.92
-11.08
-12.59
-14.04
-15.07
-15.54
-15.61
-15.66
-16.15
-17.35
-19.27
-21.57
-23.79
-25.69
-27.10
-28.08
-28.71
-29.04
-29.19
-29.76
-31.93
-36.82
-44.11
-51.45
-54.33
-47.96
-29.75
-0.92
33.69
67.69
95.65
114.61
123.69
123.01
112.71
93.30
67.10
38.94
15.34
2.24
2.38
14.00
31.98
50.33
64.49
72.59
74.91
72.50
66.25
56.61
43.99
29.23
14.37
0.38
-11.56
-20.82
-27.46
-31.89
-34.74
-36.53
-37.50
-37.60
-36.96
-35.55
-33.58
-31.44
-29.57
-28.31
-27.77
-28.20
-28.94
-29.75
-30.40
-30.98
-31.69
-32.73
-34.19
-35.92
-37.79
-39.60
-41.45
-43.44
-45.89
-48.99
-52.74
-56.85
-60.89
-64.57
-67.87
-71.21
-75.06
-80.00
-86.07
-92.75
-98.88
-103.15
-104.64
-103.05
-99.41
-93.94
-87.22
-79.36
-69.88
-57.68
-41.82
-21.93
1.40
26.64
51.80
74.35
91.89
101.59
101.91
93.56
79.65
65.30
55.90
54.54
60.00
66.77
67.50
56.52
33.20
2.04
-29.28
-53.50
-66.44
-68.32
-61.93
-50.75
-37.11
-21.61
-3.77
16.73
39.50
63.65
87.94
111.07
131.26
145.99
152.16
146.62
127.97
98.31
62.53
30.95
12.71
12.28
27.53
50.88
72.76
86.00
88.62
83.54
76.28
70.99
68.82
68.07
65.84
60.05
50.31
37.57
23.05
8.47
-5.51
-17.44
-25.28
-27.63
-25.06
-20.03
-16.22
-16.82
-22.76
-32.72
-44.05
-54.20
-61.89
-66.99
-69.63
-69.83
-67.22
-61.84
-54.75
-47.84
-43.24
-42.47
-45.95
-52.50
-60.18
-66.96
-71.61
-74.01
-74.83
-74.98
-75.15
-75.22
-74.17
-70.42
-62.38
-48.84
-29.50
-5.12
22.79
52.25
81.14
107.58
129.93
146.97
157.51
160.69
156.07
143.63
124.03
98.50
68.68
36.03
3.14
-28.12
-56.56
-81.50
-102.67
-120.14
-134.25
-145.45
-154.28
-161.10
-166.45
-170.60
-173.54
-174.99
-174.49
-171.40
-165.31
-155.65
-141.51
-122.66
-99.28
-72.04
-41.94
-10.30
21.40
51.71
78.52
100.86
118.15
130.22
137.26
139.79
138.58
134.45
128.28
121.48
114.40
107.26
100.26
93.52
87.07
80.93
75.08
69.46
64.06
58.87
53.94
49.26
44.83
40.62
36.63
32.83
29.19
25.76
22.55
19.65
17.07
14.80
12.77
10.88
9.04
7.22
5.48
3.88
2.57
1.59
0.92
0.45
0.03
-0.45
-1.03
-1.63
-2.11
-2.27
-2.04
-1.45
-0.72
-0.16
-0.00
-0.33
-0.94
-1.44
-1.45
-0.74
0.54
1.80
2.33
1.51
-0.74
-3.87
-6.78
-8.35
-7.90
-5.61
-2.48
-0.00
0.59
-1.03
-4.02
-6.60
-6.98
-4.12
1.57
8.29
13.64
15.85
14.46
10.74
7.07
5.58
7.61
13.32
21.95
32.14
41.50
46.35
42.19
25.60
-3.23
-38.69
-70.65
-88.35
-85.27
-62.60
-28.87
4.45
28.20
39.04
39.57
35.24
30.45
26.31
21.14
12.70
0.28
-13.45
-24.68
-29.73
-27.60
-19.49
-8.34
2.38
10.12
14.31
16.01
17.19
19.54
23.58
28.70
33.88
38.60
42.94
47.19
50.67
51.09
45.36
31.27
9.39
-16.70
-40.47
-56.50
-62.43
-59.46
-51.17
-41.29
-32.17
-24.47
-17.94
-12.41
-8.45
-6.61
-6.78
-7.94
-8.69
-8.20
-6.68
-5.28
-5.67
-9.29
-16.48
-26.38
-37.47
-48.05
-56.69
-63.50
-69.08
-74.48
-80.94
-89.41
-99.82
-110.45
-117.75
-117.29
-105.58
-82.01
-49.87
-15.62
13.65
33.06
41.64
41.97
38.36
34.17
30.82
27.87
24.34
19.93
15.41
12.02
10.53
10.63
11.07
10.49
7.93
3.46
-1.99
-7.08
-10.70
-12.45
-12.65
-12.15
-11.86
-12.23
-13.04
-13.61
-13.04
-10.66
-6.31
-0.40
6.22
12.66
18.27
22.81
26.48
29.76
33.15
36.96
41.17
45.44
49.22
51.86
52.89
52.10
49.59
45.75
41.05
35.94
30.54
24.68
18.04
10.38
1.89
-6.71
-14.27
-19.58
-21.84
-21.07
-18.20
-14.70
-11.92
-10.40
-9.60
-8.07
-4.14
3.21
13.62
25.22
35.29
41.71
43.69
42.24
39.61
38.36
40.29
46.04
55.05
65.90
76.35
83.29
82.98
72.33
50.56
20.45
-12.17
-40.88
-61.49
-73.72
-79.91
-83.28
-85.93
-86.92
-81.88
-65.84
-37.13
0.55
39.03
69.33
85.28
86.07
75.69
61.93
52.83
53.13
62.39
75.61
85.58
85.69
73.01
48.41
17.64
-11.73
-34.07
-48.13
-56.82
-65.38
-79.58
-103.01
-137.13
-178.42
-219.24
-250.14
-262.90
-252.61
-218.88
-166.45
-96.48
-20.71
45.64
92.98
119.91
128.87
122.37
105.90
81.99
55.35
31.11
14.67
9.25
14.09
24.48
34.47
39.55
37.79
31.10
22.81
17.47
18.57
26.42
37.81
47.92
52.98
51.79
46.73
41.49
40.14
44.99
55.33
67.86
78.54
84.07
82.42
73.18
56.68
34.48
9.23
-15.75
-37.11
-52.33
-60.28
-61.61
-58.10
-52.09
-45.49
-39.45
-34.61
-31.55
-31.08
-34.13
-41.55
-53.70
-70.16
-89.15
-107.46
-120.72
-124.64
-116.59
-96.61
-67.69
-34.83
-3.33
23.51
44.87
61.59
74.45
83.12
86.23
82.79
72.96
58.51
42.98
30.15
22.27
19.09
18.56
18.04
15.79
10.69
2.06
-9.67
-22.95
-35.57
-45.23
-50.06
-49.77
-46.18
-40.86
-38.30
-42.43
-52.26
-60.99
-60.20
-45.13
-19.79
10.54
39.75
63.07
79.52
91.55
102.69
113.09
121.00
123.04
116.02
97.62
67.12
25.97
-22.82
-75.62
-128.23
-174.95
-208.67
-221.82
-209.64
-172.50
-116.40
-51.44
10.63
59.83
90.44
101.42
95.57
77.32
51.70
23.75
-1.76
-21.29
-32.94
-36.40
-32.73
-23.73
-12.27
-1.13
7.82
14.58
20.10
25.96
33.50
43.01
53.43
61.97
66.47
67.07
67.53
71.58
81.58
97.22
116.08
134.55
147.74
152.49
148.68
141.05
132.79
125.35
118.37
111.78
106.23
100.40
92.99
83.32
74.57
65.59
53.01
32.82
4.07
-31.44
-73.88
-123.75
-180.43
-236.96
-290.51
-340.40
-387.88
-433.06
-455.18
-440.35
-391.19
-348.55
-317.78
-292.39
-254.22
-196.60
-119.77
-30.02
59.55
137.05
188.26
212.06
214.58
206.37
194.92
184.47
176.14
167.32
155.01
138.61
124.04
114.31
109.66
107.54
106.32
105.76
106.56
107.97
109.83
114.39
119.74
120.55
110.27
85.83
47.80
4.30
-35.11
-63.19
-76.18
-76.15
-68.62
-59.33
-51.18
-44.35
-37.85
-31.86
-27.28
-24.57
-23.66
-23.88
-24.26
-23.51
-20.82
-16.11
-10.76
-6.52
-5.36
-7.36
-11.93
-17.88
-23.74
-28.16
-30.27
-30.18
-27.58
-23.99
-20.35
-17.25
-14.74
-12.54
-9.97
-6.40
-1.68
3.83
9.11
13.19
15.06
14.21
10.45
4.90
-1.18
-6.98
-12.22
-17.55
-23.84
-31.92
-41.46
-52.98
-66.44
-81.36
-96.18
-107.79
-112.02
-104.86
-84.81
-54.23
-19.29
12.60
35.46
47.10
49.33
46.22
41.75
37.98
34.90
31.43
27.01
22.14
18.00
15.56
14.85
15.11
15.30
14.59
13.12
11.59
11.15
12.87
17.29
24.25
33.06
42.71
52.14
60.49
67.16
71.90
74.65
75.46
74.52
72.06
68.45
64.24
60.29
57.48
56.28
56.17
55.45
51.75
43.13
29.19
11.56
-6.47
-21.39
-30.82
-34.41
-33.66
-30.82
-27.71
-25.15
-23.00
-20.83
-18.50
-16.28
-14.54
-13.42
-12.59
-11.41
-9.29
-6.08
-2.15
1.77
5.00
7.20
8.50
9.45
10.75
12.92
16.05
19.81
23.57
26.56
28.70
29.90
30.28
30.16
29.94
29.92
30.35
31.27
32.56
33.92
34.85
34.86
33.57
30.84
26.77
21.62
15.77
9.49
2.81
-4.68
-13.71
-25.01
-38.77
-54.33
-70.02
-83.57
-92.84
-96.39
-93.96
-86.33
-74.98
-61.83
-49.01
-38.49
-31.77
-29.20
-29.71
-31.04
-30.62
-26.72
-19.18
-9.36
0.63
8.99
14.83
18.36
20.45
22.09
23.98
26.26
28.69
30.73
31.88
31.90
30.84
29.02
26.78
24.35
21.73
18.82
15.62
12.40
9.61
7.56
6.24
5.22
3.98
2.23
0.05
-2.30
-4.45
-6.19
-7.52
-8.73
-10.24
-12.28
-14.77
-17.30
-19.88
-22.44
-24.86
-27.00
-28.84
-30.46
-31.90
-33.06
-33.66
-34.39
-35.69
-37.44
-39.10
-40.22
-40.70
-40.61
-39.96
-38.69
-38.30
-39.89
-43.68
-49.09
-55.41
-62.15
-68.90
-75.10
-80.14
-85.52
-92.04
-99.28
-105.78
-110.62
-114.38
-119.20
-127.94
-129.74
-118.85
-96.06
-67.65
-39.30
-13.73
8.16
25.92
39.59
49.98
56.39
59.07
58.62
55.96
51.38
44.83
36.76
28.82
23.69
22.80
27.71
38.33
54.78
75.41
97.25
117.18
132.85
143.14
144.67
138.56
126.80
111.73
95.29
79.07
64.81
54.14
48.23
46.67
48.22
50.37
51.01
48.82
43.87
37.76
32.51
29.80
30.25
33.97
39.80
45.69
48.40
43.95
29.89
5.34
-27.13
-62.03
-92.64
-113.89
-123.86
-122.90
-115.38
-105.14
-94.36
-83.36
-72.05
-60.88
-51.45
-45.69
-45.13
-50.00
-58.22
-65.96
-68.08
-60.06
-39.70
-8.65
27.78
62.52
88.83
103.30
106.44
101.81
93.68
85.08
76.23
67.40
57.99
48.00
38.52
30.95
26.05
23.54
22.44
21.52
20.21
18.76
18.23
20.19
24.85
30.96
35.72
35.88
29.35
16.62
0.50
-14.89
-25.92
-31.15
-31.43
-28.94
-25.83
-23.17
-20.83
-18.32
-15.44
-12.66
-10.92
-10.84
-11.98
-13.20
-13.35
-11.80
-8.96
-5.87
-3.63
-3.08
-4.15
-5.71
-6.28
-5.04
-2.23
0.96
3.25
3.99
3.07
0.95
-1.61
-4.35
-8.03
-14.11
-23.72
-36.85
-51.01
-64.36
-77.59
-89.39
-97.02
-96.90
-85.57
-60.95
-23.44
23.70
74.78
121.82
154.74
169.36
169.23
161.54
151.48
139.46
122.14
95.35
58.70
16.41
-24.03
-55.78
-75.89
-85.84
-89.69
-91.33
-94.89
-99.42
-103.32
-105.64
-106.93
-108.48
-110.53
-111.03
-103.27
-84.89
-56.45
-22.62
9.78
34.26
47.12
48.64
42.41
33.78
26.20
22.29
23.19
29.17
39.60
52.85
66.32
76.95
80.15
74.24
60.52
42.01
22.58
5.75
-6.42
-13.74
-17.44
-19.53
-21.39
-23.56
-25.95
-28.03
-29.12
-28.84
-27.10
-23.89
-18.94
-11.55
-1.71
8.86
16.52
16.68
5.81
-16.53
-46.77
-78.18
-101.86
-109.73
-97.86
-67.96
-26.60
17.46
56.41
85.59
103.84
112.57
113.80
109.05
99.38
85.96
70.60
55.66
43.46
35.40
31.51
30.39
29.85
28.02
24.14
18.68
13.01
8.54
6.11
5.69
6.40
6.98
6.40
4.27
0.98
-2.66
-5.85
-8.10
-9.37
-9.98
-10.40
-11.07
-12.07
-13.13
-13.87
-14.01
-13.54
-12.72
-11.91
-11.41
-11.41
-11.67
-11.80
-11.53
-11.04
-10.81
-11.33
-12.80
-14.87
-17.07
-18.46
-18.10
-15.81
-12.49
-9.67
-8.76
-10.36
-13.94
-18.59
-22.39
-23.20
-20.21
-14.57
-8.88
-5.85
-7.05
-12.38
-21.00
-29.97
-35.27
-34.06
-26.39
-15.33
-5.96
-4.17
-14.98
-41.86
-82.40
-128.22
-167.96
-191.38
-192.29
-169.91
-128.50
-67.99
0.62
60.99
102.46
125.17
135.27
138.65
138.48
135.42
128.56
115.30
95.05
69.97
44.04
21.40
5.06
-4.16
-7.99
-9.77
-13.76
-19.89
-24.82
-24.74
-18.21
-7.12
4.66
13.17
16.27
13.90
8.72
4.32
3.12
5.35
9.42
13.30
15.44
15.31
13.29
10.95
10.32
12.86
18.73
27.07
36.80
46.64
55.22
61.02
62.83
59.95
52.37
40.72
24.96
6.94
-10.94
-27.31
-42.39
-56.56
-68.93
-77.40
-80.04
-76.65
-68.95
-60.26
-53.67
-50.54
-50.08
-50.19
-49.36
-47.78
-46.63
-45.94
-44.95
-40.47
-29.71
-12.06
10.29
33.37
53.29
67.03
74.97
78.81
78.87
73.20
59.49
37.78
12.30
-9.99
-22.44
-22.48
-12.73
-0.45
5.23
-2.54
-24.91
-55.85
-84.26
-97.99
-88.89
-56.14
-6.81
46.87
91.23
115.05
115.71
98.67
73.60
49.96
34.22
28.97
33.51
44.59
57.91
68.22
69.88
58.45
32.88
-2.94
-40.00
-67.12
-76.11
-65.50
-41.40
-14.80
3.77
9.30
3.75
-5.58
-10.66
-7.96
1.23
11.93
18.10
15.41
2.56
-19.23
-46.92
-74.99
-98.08
-112.79
-119.02
-118.94
-115.45
-111.11
-107.91
-107.74
-107.69
-104.80
-96.06
-79.10
-52.77
-17.85
23.59
62.78
91.52
106.61
109.14
102.86
91.39
77.00
61.06
45.05
30.81
21.19
20.03
27.04
39.92
55.09
68.46
76.53
77.19
69.87
56.58
40.98
26.32
14.82
6.94
1.72
-3.06
-8.15
-13.15
-16.33
-15.71
-10.66
-2.13
7.54
15.65
20.32
21.23
19.29
16.33
14.15
13.57
14.44
15.91
16.91
16.65
14.84
11.48
6.74
0.75
-6.38
-14.37
-22.61
-30.25
-36.59
-41.42
-45.31
-49.19
-53.72
-58.50
-61.97
-61.99
-56.90
-46.42
-31.84
-15.39
0.74
15.20
27.61
38.11
46.79
53.45
57.80
59.96
60.65
60.97
61.95
64.01
66.78
69.33
70.66
70.08
67.50
63.53
59.40
56.69
56.69
59.69
64.22
66.92
63.38
49.82
24.91
-9.07
-46.70
-81.53
-108.56
-126.12
-136.01
-142.00
-147.77
-155.32
-164.76
-175.07
-184.93
-192.92
-197.12
-194.85
-183.23
-160.68
-128.20
-89.76
-51.05
-17.34
8.43
26.21
38.05
46.56
53.63
60.04
65.83
70.86
75.19
78.88
81.76
83.32
82.96
80.39
75.79
69.80
63.28
57.05
51.70
47.44
44.15
41.47
38.94
36.18
33.03
29.65
26.33
23.35
20.76
18.31
15.64
12.40
8.55
4.39
0.42
-2.81
-5.03
-6.30
-6.94
-7.38
-7.97
-8.81
-9.83
-10.79
-11.48
-11.74
-11.50
-10.85
-9.93
-8.92
-7.94
-7.03
-6.09
-5.01
-3.75
-2.45
-1.38
-0.81
-0.88
-1.48
-2.35
-3.10
-3.47
-3.29
-2.53
-1.24
0.47
2.45
4.44
6.17
7.41
8.12
8.50
8.89
9.55
10.52
11.61
12.46
12.84
12.79
12.59
12.63
13.13
14.01
14.85
15.09
14.24
12.12
8.91
5.03
1.04
-2.55
-5.43
-7.53
-9.03
-10.26
-11.52
-12.95
-14.29
-14.94
-14.10
-11.05
-5.58
1.90
10.36
18.51
25.24
29.99
32.87
34.49
35.67
36.99
38.68
40.51
41.91
42.15
40.50
36.39
29.56
20.25
9.19
-2.50
-13.63
-23.28
-30.90
-36.36
-39.66
-40.75
-39.43
-35.60
-29.53
-21.98
-14.11
-7.07
-1.61
2.09
4.35
5.59
6.12
5.99
5.15
3.70
1.93
0.32
-0.61
-0.51
0.78
3.23
6.72
11.01
15.70
20.27
24.03
26.27
26.47
24.51
20.76
16.05
11.47
8.03
6.30
6.31
7.56
9.28
10.90
12.23
13.61
15.68
19.04
24.02
30.56
38.24
46.43
54.27
60.68
64.42
64.33
59.67
50.66
38.56
25.45
13.54
4.37
-1.62
-5.12
-7.33
-9.28
-11.27
-12.81
-13.08
-11.48
-8.13
-3.95
-0.30
1.59
0.99
-2.07
-6.89
-12.52
-18.02
-22.65
-26.04
-28.24
-30.04
-33.03
-39.32
-50.77
-67.89
-89.12
-110.81
-128.34
-137.70
-137.01
-127.11
-110.98
-92.42
-74.68
-59.67
-47.98
-39.32
-33.07
-28.64
-25.40
-22.64
-19.51
-15.16
-8.85
-0.30
10.12
21.56
32.83
42.77
50.69
56.39
60.15
62.41
63.50
63.44
62.07
59.24
55.06
49.96
44.59
39.61
35.46
32.24
29.70
27.39
24.85
21.74
18.06
14.12
10.35
7.14
4.59
2.41
0.11
-2.84
-6.65
-11.12
-15.68
-19.63
-22.46
-24.00
-24.41
-23.98
-23.03
-21.78
-20.38
-18.92
-17.58
-16.62
-16.24
-16.46
-17.01
-17.46
-17.41
-16.66
-15.30
-13.61
-12.05
-10.93
-10.31
-9.96
-9.64
-9.14
-8.45
-7.61
-6.71
-6.14
-6.16
-6.68
-7.32
-7.60
-7.31
-6.51
-5.52
-4.70
-5.01
-7.04
-10.53
-14.46
-17.69
-19.65
-20.47
-20.76
-21.19
-23.25
-27.77
-34.26
-41.19
-46.99
-50.99
-53.49
-55.34
-57.41
-61.77
-69.97
-82.14
-96.91
-112.28
-126.44
-137.87
-145.40
-139.27
-114.60
-74.64
-29.58
10.61
41.58
64.14
81.05
94.47
104.87
111.21
112.41
109.09
103.62
98.70
95.81
94.94
95.25
95.32
93.69
89.83
84.56
79.61
76.41
75.11
74.37
71.98
65.71
53.71
35.65
13.27
-10.14
-31.10
-47.02
-56.59
-59.53
-56.04
-46.78
-32.85
-15.94
1.65
17.36
28.97
35.23
36.04
32.12
24.60
14.61
3.24
-8.29
-18.48
-25.77
-29.17
-28.88
-26.18
-22.51
-18.68
-14.63
-9.44
-1.98
8.18
20.07
31.48
38.65
38.81
32.09
21.24
9.87
0.39
-6.71
-12.12
-17.17
-23.02
-29.97
-36.14
-39.92
-40.51
-38.39
-34.50
-29.63
-24.12
-17.70
-10.18
-2.11
4.71
6.31
-0.70
-14.77
-29.78
-38.81
-37.83
-27.25
-10.56
7.25
23.78
37.02
46.07
50.06
47.45
36.63
16.77
-10.13
-39.47
-63.97
-77.23
-74.67
-55.62
-24.08
13.51
46.20
64.31
64.80
55.37
41.95
28.17
15.68
3.83
-7.09
-16.74
-24.11
-28.03
-27.90
-24.86
-20.02
-14.37
-8.81
-3.88
0.13
3.83
8.29
14.07
20.08
24.87
27.11
26.12
22.29
16.78
11.51
8.51
8.98
12.55
18.19
24.60
30.50
35.02
37.63
38.32
37.37
34.82
30.22
23.02
12.99
0.56
-13.00
-25.91
-36.29
-42.77
-44.87
-43.07
-38.34
-31.88
-24.88
-18.38
-13.22
-9.96
-8.73
-9.28
-11.16
-13.96
-17.44
-21.40
-25.42
-28.75
-30.39
-29.65
-26.55
-21.94
-17.10
-12.95
-9.45
-5.54
0.22
8.79
20.02
32.61
44.68
54.58
61.43
65.18
66.26
65.17
62.29
57.95
52.63
47.04
41.94
37.91
35.17
33.54
32.63
32.04
31.42
30.57
29.29
27.44
24.93
21.80
18.22
14.45
10.78
7.44
4.55
2.18
0.32
-1.15
-2.38
-3.55
-4.85
-6.32
-7.88
-9.33
-10.51
-11.31
-11.78
-11.99
-12.04
-11.98
-11.83
-11.64
-11.57
-11.83
-12.57
-13.80
-15.33
-16.83
-17.99
-18.66
-18.91
-18.91
-18.80
-18.60
-18.15
-17.25
-15.78
-13.75
-11.39
-9.02
-6.97
-5.44
-4.50
-4.04
-3.86
-3.72
-3.50
-3.21
-3.01
-3.10
-3.62
-4.56
-5.80
-7.14
-8.46
-9.75
-11.03
-12.25
-13.28
-13.87
-13.91
-13.44
-12.70
-11.98
-11.48
-11.19
-10.92
-10.51
-9.90
-9.22
-8.68
-8.46
-8.62
-9.00
-9.40
-9.65
-9.69
-9.62
-9.64
-9.96
-10.71
-11.89
-13.39
-14.98
-16.46
-17.60
-18.17
-17.92
-16.69
-14.44
-11.42
-8.12
-5.13
-2.88
-1.47
-0.67
-0.08
0.57
1.25
1.63
1.24
-0.20
-2.68
-5.91
-9.48
-12.99
-16.21
-18.98
-21.19
-22.75
-23.62
-23.90
-23.87
-23.86
-24.05
-24.27
-23.92
-22.15
-18.27
-12.00
-3.75
5.52
14.61
22.44
28.31
31.93
33.27
32.44
29.68
25.42
20.37
15.51
11.86
10.17
10.56
12.51
14.95
16.74
17.04
15.60
12.79
9.48
6.81
5.98
8.00
13.58
22.84
35.09
48.76
61.71
71.70
77.26
77.93
74.40
68.16
60.96
54.19
48.51
43.82
39.30
34.07
27.16
17.95
6.40
-6.81
-20.59
-33.81
-45.57
-55.43
-62.82
-67.42
-68.98
-67.26
-62.17
-53.65
-41.86
-27.16
-10.27
7.86
25.30
39.57
48.48
51.21
48.59
42.72
36.00
27.57
18.02
8.59
0.48
-6.01
-11.30
-16.15
-21.27
-26.88
-32.58
-36.87
-39.14
-38.95
-36.44
-32.14
-26.66
-20.50
-14.00
-7.54
-1.30
4.45
9.68
14.72
20.31
27.36
36.47
47.45
59.17
70.01
78.19
82.33
81.76
76.63
67.71
56.08
42.78
28.65
14.30
0.11
-13.73
-27.15
-40.25
-53.13
-65.66
-77.53
-88.49
-98.33
-106.87
-113.77
-118.57
-120.77
-120.04
-115.93
-108.42
-98.31
-87.25
-76.88
-68.20
-61.20
-55.09
-48.84
-41.06
-31.00
-19.33
-7.98
1.07
6.76
9.22
9.34
8.48
9.01
13.52
23.72
39.91
61.19
85.73
110.88
133.51
145.60
141.33
122.52
98.54
79.16
68.59
64.91
62.98
57.86
47.23
32.74
18.18
6.50
-1.98
-9.01
-16.70
-25.96
-35.97
-44.67
-49.47
-48.80
-43.15
-35.19
-27.30
-21.14
-17.19
-15.20
-14.60
-14.43
-13.74
-11.89
-8.75
-4.38
0.81
6.23
11.16
15.26
18.49
21.00
22.81
23.59
22.90
20.41
16.27
11.16
6.15
2.31
0.35
0.25
1.31
2.53
3.08
2.68
1.60
0.68
0.72
2.12
4.78
8.13
11.40
13.98
15.61
16.48
17.05
17.74
18.78
20.07
21.22
21.79
21.43
20.03
17.66
14.48
10.61
6.21
1.61
-2.68
-5.98
-7.83
-8.29
-8.15
-8.74
-11.40
-16.81
-24.67
-33.75
-42.47
-49.60
-54.82
-58.68
-62.13
-65.98
-70.40
-74.87
-78.56
-80.73
-80.99
-79.23
-75.40
-69.29
-60.62
-49.26
-35.66
-20.92
-6.62
5.66
14.90
20.93
24.27
25.74
26.07
25.72
24.92
23.90
22.96
22.48
22.73
23.74
25.31
27.14
29.00
30.81
32.70
34.84
37.38
40.37
43.84
47.72
51.96
56.43
60.93
65.19
68.90
71.75
73.47
73.77
72.44
69.25
64.14
57.22
48.84
39.55
29.96
20.57
11.67
3.43
-4.05
-10.65
-16.15
-20.32
-23.00
-24.26
-24.40
-23.94
-23.47
-23.54
-24.48
-26.33
-28.90
-31.85
-34.81
-37.48
-39.65
-41.21
-42.15
-42.54
-42.54
-42.35
-42.17
-42.12
-42.23
-42.48
-42.78
-43.10
-43.39
-43.58
-43.50
-42.93
-41.58
-39.19
-35.62
-30.80
-24.83
-17.90
-10.29
-2.27
5.90
14.03
21.97
29.55
36.56
42.72
47.73
51.33
53.36
53.80
52.79
50.64
47.69
44.34
40.86
37.43
34.14
30.99
28.00
25.18
22.54
20.09
17.85
15.81
13.99
12.37
10.89
9.42
7.72
5.53
2.60
-1.21
-5.92
-11.35
-17.24
-23.29
-29.32
-35.36
-41.62
-48.30
-55.49
-62.91
-70.02
-76.10
-80.54
-82.95
-83.28
-81.69
-78.41
-73.71
-67.83
-61.08
-53.79
-46.37
-39.22
-32.73
-27.17
-22.74
-19.49
-17.37
-16.15
-15.51
-15.03
-14.31
-12.89
-10.36
-6.38
-0.80
6.16
13.96
21.86
29.22
35.74
41.58
47.17
52.88
58.68
64.08
68.33
70.76
71.20
70.02
67.93
65.65
63.57
61.65
59.59
57.04
53.84
50.12
46.24
42.55
39.32
36.56
34.13
31.77
29.32
26.72
24.06
21.55
19.38
17.68
16.43
15.50
14.69
13.78
12.57
10.89
8.59
5.53
1.58
-3.25
-8.79
-14.66
-20.35
-25.33
-29.26
-32.04
-33.83
-34.85
-35.30
-35.30
-34.83
-33.86
-32.40
-30.51
-28.28
-25.79
-23.08
-20.23
-17.37
-14.68
-12.33
-10.37
-8.72
-7.25
-5.85
-4.60
-3.76
-3.73
-4.84
-7.26
-10.88
-15.33
-20.14
-24.82
-28.97
-32.39
-35.05
-37.09
-38.85
-40.71
-42.95
-45.50
-47.75
-48.67
-47.07
-42.15
-33.90
-23.35
-12.19
-2.25
5.11
9.37
10.82
10.20
8.35
6.03
3.92
2.67
2.85
4.71
8.00
11.95
15.58
18.08
19.21
19.35
19.24
19.61
20.83
22.84
25.30
27.80
30.12
32.16
33.95
35.53
36.88
37.95
38.72
39.19
39.34
39.14
38.53
37.48
36.02
34.37
32.83
31.70
31.11
30.86
30.45
29.20
26.56
22.33
16.79
10.57
4.47
-0.78
-4.77
-7.52
-9.52
-11.56
-14.44
-18.57
-23.83
-29.52
-34.66
-38.38
-40.29
-40.52
-39.56
-38.00
-36.20
-34.28
-32.21
-30.02
-27.75
-25.39
-22.75
-19.45
-15.12
-9.68
-3.36
3.29
9.55
14.81
18.74
21.31
22.71
23.25
23.29
23.18
23.22
23.60
24.33
25.28
26.15
26.57
26.22
24.92
22.67
19.69
16.31
12.88
9.64
6.66
3.92
1.35
-1.08
-3.30
-5.25
-6.94
-8.42
-9.81
-11.17
-12.40
-13.34
-13.81
-13.77
-13.35
-12.79
-12.30
-11.96
-11.67
-11.19
-10.36
-9.18
-7.83
-6.59
-5.69
-5.21
-5.14
-5.42
-6.09
-7.29
-9.15
-11.71
-14.79
-18.07
-21.15
-23.69
-25.54
-26.65
-27.12
-27.03
-26.50
-25.58
-24.33
-22.80
-21.04
-19.07
-16.96
-14.77
-12.55
-10.31
-8.00
-5.46
-2.53
0.91
4.83
9.03
13.19
17.02
20.33
23.18
25.78
28.38
31.04
33.58
35.59
36.61
36.38
34.91
32.46
29.39
26.07
22.82
19.98
17.92
16.96
17.18
18.22
19.34
19.61
18.41
15.65
11.95
8.28
5.61
4.54
5.14
7.10
9.89
13.00
15.95
18.32
19.71
19.83
18.62
16.33
13.44
10.45
7.69
5.17
2.72
0.08
-2.91
-6.19
-9.54
-12.72
-15.54
-17.98
-20.10
-21.99
-23.69
-25.13
-26.17
-26.68
-26.63
-26.09
-25.33
-24.71
-24.62
-25.36
-27.04
-29.54
-32.50
-35.41
-37.73
-38.96
-38.71
-36.71
-32.85
-27.21
-20.07
-11.96
-3.52
4.64
12.05
18.52
24.03
28.63
32.37
35.14
36.79
37.15
36.05
33.49
29.59
24.65
19.10
13.41
7.99
3.06
-1.36
-5.39
-9.13
-12.55
-15.44
-17.52
-18.64
-18.86
-18.48
-17.96
-17.78
-18.34
-19.86
-22.38
-25.80
-29.94
-34.53
-39.25
-43.72
-47.63
-50.75
-52.99
-54.31
-54.69
-54.02
-52.24
-49.28
-45.27
-40.52
-35.45
-30.47
-25.87
-21.75
-18.09
-14.79
-11.78
-8.97
-6.24
-3.45
-0.48
2.69
6.02
9.42
12.81
16.19
19.61
23.17
26.99
31.16
35.74
40.75
46.11
51.66
57.13
62.24
66.78
70.68
73.90
76.35
77.81
77.89
76.12
72.12
65.77
57.24
47.00
35.63
23.75
11.89
0.48
-10.13
-19.67
-27.87
-34.55
-39.57
-42.96
-44.84
-45.44
-45.08
-43.99
-42.28
-39.92
-36.73
-32.59
-27.45
-21.50
-15.08
-8.63
-2.53
3.02
8.01
12.56
16.88
21.16
25.55
30.14
34.99
40.08
45.28
50.30
54.69
57.99
59.83
60.11
59.01
56.91
54.20
51.16
47.81
44.01
39.53
34.23
28.09
21.32
14.19
7.06
0.22
-6.08
-11.75
-16.81
-21.39
-25.62
-29.59
-33.26
-36.51
-39.18
-41.10
-42.21
-42.53
-42.18
-41.25
-39.85
-38.04
-35.88
-33.48
-31.01
-28.67
-26.63
-25.02
-23.88
-23.19
-22.94
-23.09
-23.62
-24.42
-25.34
-26.19
-26.84
-27.26
-27.54
-27.77
-27.90
-27.72
-26.79
-24.70
-21.17
-16.20
-10.07
-3.20
3.98
11.03
17.59
23.36
28.10
31.69
34.15
35.61
36.17
35.92
34.87
33.12
30.99
29.08
28.05
28.37
30.02
32.43
34.73
36.11
36.15
34.92
32.88
30.54
28.28
26.20
24.23
22.29
20.44
18.86
17.73
17.16
17.04
17.06
16.81
15.95
14.26
11.67
8.23
3.99
-1.03
-6.82
-13.33
-20.36
-27.56
-34.46
-40.59
-45.56
-49.17
-51.35
-52.21
-51.92
-50.69
-48.78
-46.42
-43.83
-41.09
-38.22
-35.16
-31.84
-28.29
-24.61
-20.97
-17.49
-14.19
-11.01
-7.80
-4.47
-1.04
2.31
5.35
7.85
9.76
11.21
12.46
13.75
15.18
16.66
17.97
18.88
19.31
19.34
19.17
19.01
18.96
19.05
19.22
19.45
19.78
20.25
20.90
21.61
22.18
22.31
21.79
20.52
18.59
16.19
13.50
10.67
7.81
5.00
2.38
0.10
-1.74
-3.12
-4.11
-4.91
-5.73
-6.75
-8.11
-9.87
-12.00
-14.41
-16.95
-19.43
-21.68
-23.58
-25.04
-26.03
-26.60
-26.80
-26.67
-26.26
-25.54
-24.51
-23.15
-21.53
-19.84
-18.34
-17.31
-16.94
-17.25
-18.03
-18.98
-19.66
-19.74
-18.97
-17.25
-14.63
-11.21
-7.08
-2.25
3.26
9.39
15.89
22.34
28.19
32.90
36.12
37.78
38.08
37.34
35.88
33.84
31.23
27.96
23.96
19.32
14.30
9.24
4.42
-0.11
-4.46
-8.88
-13.50
-18.20
-22.48
-25.63
-26.92
-25.85
-22.33
-16.59
-9.09
-0.35
9.15
18.92
28.46
37.14
44.33
49.50
52.36
52.97
51.62
48.73
44.65
39.62
33.75
27.17
20.10
12.92
6.06
-0.11
-5.34
-9.59
-12.91
-15.41
-17.17
-18.22
-18.60
-18.39
-17.72
-16.72
-15.50
-14.13
-12.69
-11.22
-9.80
-8.51
-7.48
-6.91
-6.96
-7.79
-9.43
-11.69
-14.20
-16.49
-18.18
-19.08
-19.21
-18.71
-17.74
-16.35
-14.54
-12.30
-9.76
-7.15
-4.78
-2.85
-1.42
-0.37
0.51
1.44
2.46
3.50
4.37
4.82
4.74
4.09
2.98
1.59
0.08
-1.47
-2.98
-4.42
-5.76
-6.99
-8.15
-9.37
-10.87
-12.87
-15.53
-18.80
-22.48
-26.22
-29.67
-32.56
-34.73
-36.17
-36.92
-37.08
-36.77
-36.06
-35.01
-33.62
-31.84
-29.66
-27.16
-24.52
-22.04
-19.99
-18.55
-17.80
-17.69
-18.10
-18.91
-19.97
-21.07
-21.95
-22.39
-22.24
-21.45
-20.08
-18.09
-15.33
-11.45
-6.15
0.73
8.95
17.99
27.09
35.53
42.75
48.44
52.52
55.08
56.27
56.34
55.56
54.21
52.59
50.96
49.50
48.29
47.21
45.99
44.26
41.71
38.24
34.01
29.36
24.64
20.07
15.68
11.40
7.20
3.17
-0.43
-3.27
-5.10
-5.82
-5.49
-4.27
-2.38
-0.01
2.68
5.55
8.47
11.28
13.79
15.84
17.36
18.37
19.06
19.64
20.30
21.08
21.85
22.31
22.11
20.88
18.41
14.64
9.72
4.05
-1.90
-7.54
-12.41
-16.23
-18.97
-20.81
-22.15
-23.36
-24.72
-26.27
-27.75
-28.82
-29.12
-28.58
-27.43
-26.18
-25.29
-24.95
-24.92
-24.62
-23.41
-20.85
-16.93
-12.05
-6.79
-1.70
2.89
6.96
10.70
14.39
18.21
22.19
26.11
29.60
32.17
33.46
33.27
31.64
28.83
25.21
21.19
17.08
13.10
9.35
5.80
2.44
-0.77
-3.80
-6.55
-8.94
-10.89
-12.43
-13.59
-14.42
-14.99
-15.35
-15.69
-16.32
-17.63
-19.98
-23.47
-27.86
-32.59
-36.94
-40.22
-41.87
-41.61
-39.39
-35.35
-29.73
-22.84
-15.03
-6.66
1.83
9.88
16.81
21.88
24.51
24.39
21.65
16.76
10.44
3.44
-3.55
-10.01
-15.49
-19.62
-22.13
-22.90
-22.00
-19.69
-16.35
-12.38
-8.15
-3.92
0.14
3.98
7.66
11.29
15.01
18.88
22.93
27.18
31.67
36.50
41.73
47.34
53.14
58.83
64.02
68.37
71.61
73.50
73.85
72.46
69.19
63.97
56.93
48.28
38.33
27.37
15.67
3.53
-8.69
-20.51
-31.45
-41.10
-49.26
-55.88
-61.08
-64.99
-67.63
-68.89
-68.67
-67.00
-64.10
-60.39
-56.30
-52.12
-47.91
-43.56
-38.92
-33.99
-28.91
-23.91
-19.22
-14.89
-10.84
-6.91
-2.98
0.93
4.69
8.12
11.11
13.58
15.53
16.89
17.54
17.27
15.88
13.22
9.34
4.52
-0.78
-6.03
-10.74
-14.54
-17.27
-18.84
-19.29
-18.69
-17.13
-14.82
-12.01
-9.04
-6.25
-3.99
-2.60
-2.49
-4.09
-7.74
-13.54
-21.17
-29.83
-38.45
-45.87
-51.18
-53.84
-53.74
-51.09
-46.37
-40.16
-33.13
-25.91
-18.88
-12.11
-5.34
1.88
9.86
18.60
27.60
36.03
43.03
47.91
50.48
50.97
50.00
48.35
46.76
45.80
45.69
46.36
47.45
48.50
49.01
48.66
47.37
45.27
42.76
40.30
38.28
36.89
36.02
35.29
34.17
32.26
29.39
25.77
21.89
18.35
15.64
14.03
13.53
13.89
14.72
15.48
15.69
15.05
13.54
11.39
9.01
6.81
5.00
3.66
2.72
2.09
1.67
1.31
0.86
0.13
-0.98
-2.38
-3.84
-5.07
-5.91
-6.43
-6.97
-7.97
-9.87
-12.94
-17.21
-22.33
-27.57
-31.87
-34.16
-33.73
-30.53
-25.21
-18.88
-12.64
-7.25
-2.95
0.35
2.83
4.55
5.55
5.93
6.03
6.39
7.52
9.57
12.25
14.80
16.32
16.10
13.86
9.86
4.71
-0.86
-6.27
-11.26
-15.74
-19.72
-23.12
-25.75
-27.46
-28.28
-28.41
-28.20
-27.90
-27.60
-27.18
-26.45
-25.29
-23.71
-21.82
-19.72
-17.49
-15.14
-12.67
-10.10
-7.45
-4.65
-1.61
1.76
5.45
9.23
12.75
15.66
17.72
18.92
19.45
19.54
19.34
18.87
18.02
16.66
14.67
12.02
8.68
4.67
0.09
-4.83
-9.72
-14.15
-17.85
-20.83
-23.52
-26.58
-30.58
-35.68
-41.39
-46.69
-50.30
-51.13
-48.69
-43.19
-35.40
-26.38
-17.10
-8.18
0.05
7.49
14.01
19.50
23.88
27.28
30.01
32.46
34.82
36.95
38.32
38.28
36.39
32.66
27.61
22.04
16.72
12.14
8.39
5.23
2.31
-0.59
-3.50
-6.21
-8.46
-10.22
-11.76
-13.61
-16.28
-19.91
-24.14
-28.19
-31.32
-33.12
-33.74
-33.62
-33.16
-32.44
-31.18
-29.02
-25.81
-21.83
-17.60
-13.68
-10.32
-7.46
-4.80
-2.06
0.86
3.78
6.44
8.60
10.18
11.30
12.15
12.94
13.73
14.50
15.15
15.57
15.68
15.52
15.15
14.60
13.83
12.74
11.25
9.36
7.21
5.05
3.16
1.71
0.76
0.27
0.14
0.28
0.58
0.93
1.15
1.07
0.56
-0.38
-1.63
-3.02
-4.33
-5.44
-6.28
-6.78
-6.89
-6.51
-5.57
-4.08
-2.18
-0.14
1.79
3.44
4.78
5.92
7.01
8.15
9.34
10.51
11.60
12.60
13.55
14.49
15.47
16.44
17.36
18.17
18.85
19.45
20.11
21.08
22.61
24.85
27.65
30.51
32.64
33.25
31.81
28.31
23.31
17.71
12.50
8.43
5.90
4.94
5.35
6.75
8.74
10.94
13.06
14.95
16.58
17.96
19.10
19.93
20.33
20.09
19.04
17.05
14.08
10.13
5.32
-0.20
-6.19
-12.41
-18.61
-24.55
-30.03
-34.85
-38.78
-41.63
-43.29
-43.77
-43.23
-41.95
-40.21
-38.24
-36.17
-34.04
-31.90
-29.85
-28.13
-27.04
-26.95
-28.17
-30.90
-35.07
-40.28
-45.79
-50.60
-53.69
-54.24
-51.83
-46.54
-38.94
-29.91
-20.43
-11.35
-3.21
3.75
9.58
14.46
18.65
22.37
25.79
29.09
32.41
35.86
39.41
42.85
45.82
47.89
48.74
48.22
46.44
43.60
39.95
35.70
30.99
25.94
20.71
15.53
10.65
6.28
2.58
-0.37
-2.52
-3.82
-4.25
-3.86
-2.79
-1.28
0.43
2.17
3.93
5.74
7.68
9.72
11.73
13.51
14.93
15.89
16.43
16.59
16.43
16.01
15.43
14.79
14.18
13.61
13.03
12.37
11.57
10.66
9.73
8.89
8.19
7.57
6.87
5.87
4.36
2.20
-0.59
-3.89
-7.48
-11.17
-14.82
-18.36
-21.73
-24.84
-27.52
-29.47
-30.42
-30.18
-28.77
-26.42
-23.61
-20.92
-18.87
-17.75
-17.47
-17.56
-17.35
-16.16
-13.67
-9.93
-5.38
-0.60
3.85
7.61
10.51
12.56
13.84
14.57
15.00
15.40
16.02
16.93
17.98
18.89
19.32
19.09
18.24
16.99
15.59
14.15
12.52
10.45
7.73
4.41
0.93
-2.09
-3.97
-4.26
-2.87
0.00
3.94
8.47
13.07
17.22
20.38
22.07
22.02
20.28
17.25
13.61
10.10
7.33
5.60
4.84
4.56
3.99
2.28
-1.20
-6.50
-12.95
-19.26
-24.00
-26.17
-25.66
-23.39
-20.86
-19.47
-19.94
-22.10
-25.12
-27.96
-29.86
-30.52
-30.11
-28.99
-27.50
-25.82
-23.90
-21.58
-18.84
-16.02
-13.69
-12.38
-12.06
-11.88
-10.40
-6.20
1.28
11.26
21.95
31.25
37.66
40.66
40.61
38.08
33.41
26.57
17.41
6.11
-6.65
-19.79
-32.27
-43.40
-52.95
-61.03
-67.78
-73.07
-76.35
-76.90
-74.22
-68.58
-61.17
-53.86
-48.48
-46.13
-46.68
-48.90
-51.12
-51.89
-50.55
-47.20
-42.34
-36.48
-29.87
-22.49
-14.26
-5.23
4.37
14.14
23.55
32.11
39.41
45.26
49.71
53.01
55.52
57.58
59.38
61.01
62.51
63.97
65.55
67.42
69.68
72.21
74.63
76.41
77.01
76.07
73.52
69.67
65.14
60.60
56.67
53.63
51.46
49.83
48.24
46.24
43.48
39.88
35.59
30.95
26.36
22.18
18.66
15.87
13.65
11.73
9.74
7.36
4.35
0.56
-4.06
-9.54
-15.90
-23.06
-30.87
-39.02
-47.03
-54.35
-60.41
-64.72
-67.00
-67.19
-65.51
-62.45
-58.63
-54.70
-51.11
-48.02
-45.30
-42.63
-39.64
-36.04
-31.73
-26.70
-21.09
-15.04
-8.75
-2.42
3.69
9.27
14.02
17.73
20.40
22.21
23.48
24.54
25.58
26.59
27.41
27.85
27.84
27.40
26.64
25.63
24.42
22.99
21.32
19.45
17.43
15.39
13.46
11.80
10.54
9.76
9.47
9.58
9.93
10.39
10.90
11.45
12.06
12.75
13.52
14.29
14.99
15.52
15.77
15.62
14.99
13.88
12.40
10.78
9.26
8.02
7.06
6.25
5.38
4.28
2.92
1.41
-0.07
-1.36
-2.42
-3.38
-4.45
-5.86
-7.72
-10.00
-12.55
-15.12
-17.46
-19.38
-20.74
-21.46
-21.47
-20.74
-19.26
-17.11
-14.42
-11.37
-8.15
-4.88
-1.67
1.40
4.29
6.97
9.48
11.88
14.25
16.54
18.55
19.86
20.06
18.92
16.56
13.45
10.23
7.53
5.65
4.64
4.26
4.25
4.44
4.80
5.41
6.36
7.71
9.38
11.29
13.23
15.00
16.34
17.05
17.07
16.45
15.44
14.32
13.30
12.47
11.73
10.88
9.67
7.92
5.55
2.54
-1.00
-4.89
-8.89
-12.76
-16.28
-19.35
-21.96
-24.16
-25.98
-27.40
-28.34
-28.73
-28.49
-27.70
-26.57
-25.40
-24.52
-24.18
-24.47
-25.25
-26.23
-27.06
-27.42
-27.15
-26.24
-24.85
-23.23
-21.69
-20.47
-19.74
-19.52
-19.64
-19.87
-19.90
-19.52
-18.64
-17.24
-15.41
-13.24
-10.82
-8.25
-5.65
-3.20
-1.05
0.66
1.91
2.74
3.26
3.56
3.69
3.66
3.47
3.13
2.72
2.36
2.16
2.20
2.48
2.96
3.57
4.23
4.88
5.47
6.00
6.48
6.96
7.49
8.07
8.69
9.26
9.67
9.87
9.85
9.68
9.49
9.40
9.50
9.82
10.30
10.89
11.54
12.26
13.07
13.98
14.94
15.79
16.29
16.20
15.41
13.98
12.14
10.22
8.39
6.62
4.62
2.06
-1.31
-5.40
-9.89
-14.32
-18.34
-21.80
-24.76
-27.38
-29.76
-31.91
-33.73
-35.20
-36.36
-37.34
-38.23
-39.03
-39.61
-39.85
-39.68
-39.20
-38.63
-38.21
-38.10
-38.29
-38.57
-38.67
-38.26
-37.13
-35.15
-32.34
-28.78
-24.61
-19.98
-14.99
-9.70
-4.22
1.28
6.51
11.14
14.89
17.66
19.56
20.86
21.87
22.77
23.60
24.28
24.71
24.83
24.70
24.38
23.95
23.50
23.08
22.77
22.63
22.64
22.74
22.85
22.88
22.82
22.72
22.57
22.33
21.86
20.99
19.64
17.89
15.91
13.94
12.14
10.50
8.88
7.10
5.06
2.83
0.64
-1.20
-2.42
-2.89
-2.68
-1.95
-0.91
0.29
1.63
3.12
4.82
6.79
9.03
11.49
14.05
16.48
18.51
19.82
20.16
19.45
17.80
15.57
13.21
11.15
9.63
8.66
7.95
7.12
5.78
3.76
1.13
-1.74
-4.41
-6.41
-7.51
-7.71
-7.30
-6.79
-6.75
-7.64
-9.63
-12.57
-15.99
-19.32
-22.00
-23.62
-23.99
-23.05
-20.81
-17.33
-12.79
-7.50
-1.94
3.39
8.14
12.22
15.85
19.40
23.22
27.40
31.69
35.52
38.14
38.84
37.13
32.88
26.29
17.87
8.33
-1.56
-11.03
-19.42
-26.22
-31.15
-34.20
-35.59
-35.73
-35.08
-33.98
-32.61
-30.92
-28.74
-25.93
-22.46
-18.46
-14.24
-10.15
-6.56
-3.71
-1.76
-0.77
-0.80
-1.91
-4.21
-7.72
-12.39
-17.96
-24.03
-30.12
-35.74
-40.54
-44.26
-46.82
-48.21
-48.59
-48.23
-47.49
-46.68
-46.02
-45.53
-45.08
-44.40
-43.24
-41.39
-38.76
-35.32
-31.13
-26.28
-20.84
-14.91
-8.54
-1.76
5.41
12.87
20.42
27.75
34.53
40.48
45.48
49.58
52.97
55.87
58.43
60.69
62.60
64.09
65.12
65.70
65.89
65.80
65.62
65.65
66.26
67.72
69.95
72.45
74.35
74.81
73.33
69.99
65.38
60.21
54.97
49.74
44.28
38.31
31.77
24.92
18.10
11.58
5.39
-0.58
-6.47
-12.17
-17.38
-21.68
-24.75
-26.55
-27.35
-27.58
-27.66
-27.80
-27.97
-28.03
-27.83
-27.37
-26.86
-26.57
-26.73
-27.34
-28.15
-28.74
-28.62
-27.47
-25.21
-22.05
-18.36
-14.55
-10.88
-7.38
-3.87
-0.16
3.85
8.05
12.12
15.64
18.24
19.64
19.77
18.75
16.78
14.15
11.15
8.01
4.92
1.99
-0.67
-2.97
-4.87
-6.34
-7.40
-8.08
-8.45
-8.66
-8.90
-9.47
-10.67
-12.78
-15.91
-19.94
-24.54
-29.30
-33.95
-38.46
-43.01
-47.77
-52.58
-56.85
-59.57
-59.67
-56.36
-49.40
-39.13
-26.32
-11.94
2.94
17.27
29.95
40.02
46.82
50.23
50.69
49.03
46.07
42.37
37.95
32.48
25.53
16.84
6.59
-4.72
-16.38
-27.72
-38.17
-47.29
-54.70
-60.03
-62.99
-63.43
-61.48
-57.59
-52.40
-46.60
-40.64
-34.71
-28.74
-22.52
-15.90
-8.94
-1.96
4.56
10.13
14.43
17.43
19.31
20.38
20.94
21.16
21.11
20.86
20.47
19.98
19.40
18.59
17.33
15.39
12.69
9.36
5.72
2.16
-0.98
-3.50
-5.35
-6.60
-7.37
-7.77
-7.92
-7.87
-7.66
-7.30
-6.84
-6.25
-5.52
-4.56
-3.31
-1.75
0.06
2.00
3.90
5.56
6.90
7.87
8.59
9.22
9.97
10.94
12.12
13.40
14.58
15.54
16.18
16.49
16.47
16.08
15.21
13.81
11.90
9.57
7.01
4.42
1.98
-0.16
-1.86
-3.03
-3.62
-3.70
-3.47
-3.10
-2.74
-2.39
-1.99
-1.40
-0.57
0.45
1.47
2.31
2.82
3.06
3.22
3.64
4.62
6.35
8.78
11.65
14.55
17.03
18.67
19.25
18.75
17.41
15.61
13.77
12.18
10.88
9.65
8.12
5.95
3.01
-0.57
-4.43
-8.12
-11.30
-13.80
-15.62
-16.92
-17.96
-19.02
-20.47
-22.59
-25.45
-28.75
-31.69
-33.20
-32.25
-28.31
-21.66
-13.28
-4.54
3.32
9.60
14.25
17.64
20.24
22.35
24.03
25.16
25.61
25.33
24.35
22.74
20.50
17.64
14.19
10.33
6.38
2.82
0.18
-1.14
-0.95
0.62
3.19
6.14
8.90
11.05
12.50
13.46
14.41
15.82
17.98
20.94
24.45
28.18
31.82
35.20
38.22
40.76
42.56
43.30
42.68
40.69
37.57
33.82
29.90
26.08
22.38
18.59
14.51
10.04
5.30
0.52
-3.99
-7.94
-11.10
-13.30
-14.49
-14.75
-14.23
-13.17
-11.82
-10.39
-9.08
-8.12
-7.67
-7.82
-8.49
-9.42
-10.25
-10.69
-10.63
-10.15
-9.46
-8.82
-8.39
-8.18
-8.11
-8.06
-7.97
-7.81
-7.65
-7.58
-7.67
-7.98
-8.44
-9.02
-9.66
-10.34
-11.08
-11.92
-12.82
-13.65
-14.18
-14.14
-13.31
-11.55
-8.85
-5.34
-1.27
3.01
7.12
10.78
13.89
16.57
19.05
21.45
23.62
25.15
25.48
24.18
21.16
16.67
11.16
5.04
-1.38
-8.00
-14.66
-21.14
-27.10
-32.22
-36.32
-39.40
-41.55
-42.90
-43.51
-43.36
-42.48
-40.91
-38.79
-36.23
-33.34
-30.16
-26.73
-23.12
-19.45
-15.88
-12.56
-9.58
-6.98
-4.80
-3.10
-1.91
-1.20
-0.78
-0.31
0.60
2.25
4.69
7.67
10.80
13.62
15.88
17.52
18.64
19.44
20.04
20.56
21.04
21.57
22.23
23.04
23.92
24.66
25.03
24.89
24.28
23.47
22.90
22.98
24.03
26.13
29.11
32.64
36.25
39.48
41.89
43.16
43.03
41.38
38.21
33.67
28.03
21.66
14.96
8.32
2.07
-3.59
-8.61
-13.04
-17.03
-20.73
-24.21
-27.47
-30.45
-32.99
-34.97
-36.27
-36.87
-36.77
-36.00
-34.56
-32.42
-29.51
-25.78
-21.27
-16.15
-10.76
-5.49
-0.73
3.23
6.28
8.43
9.78
10.44
10.45
9.86
8.67
6.98
4.96
2.85
0.89
-0.76
-2.06
-3.07
-3.91
-4.64
-5.23
-5.60
-5.72
-5.61
-5.40
-5.24
-5.24
-5.39
-5.59
-5.75
-5.81
-5.83
-5.90
-6.13
-6.50
-6.94
-7.29
-7.44
-7.37
-7.17
-6.97
-6.92
-7.07
-7.38
-7.78
-8.21
-8.66
-9.16
-9.71
-10.27
-10.77
-11.15
-11.45
-11.80
-12.38
-13.29
-14.52
-15.91
-17.27
-18.50
-19.62
-20.77
-22.02
-23.39
-24.73
-25.86
-26.68
-27.20
-27.55
-27.83
-28.00
-27.90
-27.33
-26.19
-24.54
-22.59
-20.61
-18.79
-17.16
-15.64
-14.04
-12.27
-10.37
-8.51
-6.91
-5.75
-5.09
-4.87
-4.94
-5.11
-5.23
-5.27
-5.35
-5.65
-6.38
-7.60
-9.21
-10.89
-12.26
-13.06
-13.19
-12.78
-12.00
-10.94
-9.52
-7.50
-4.62
-0.74
4.13
9.94
16.61
24.08
32.26
40.94
49.71
57.98
65.15
70.78
74.71
77.13
78.46
79.12
79.38
79.19
78.27
76.25
72.92
68.37
62.92
56.95
50.70
44.19
37.22
29.63
21.41
12.86
4.42
-3.47
-10.54
-16.75
-22.25
-27.25
-31.81
-35.86
-39.19
-41.62
-43.13
-43.86
-44.09
-44.11
-44.10
-44.03
-43.77
-43.23
-42.45
-41.70
-41.39
-41.92
-43.52
-46.15
-49.57
-53.41
-57.37
-61.21
-64.77
-67.85
-70.14
-71.25
-70.81
-68.65
-64.85
-59.81
-54.08
-48.17
-42.39
-36.71
-30.88
-24.64
-17.84
-10.59
-3.12
4.31
11.46
18.19
24.39
29.94
34.73
38.69
41.90
44.56
46.93
49.17
51.31
53.24
54.80
55.85
56.38
56.46
56.22
55.75
55.04
53.99
52.42
50.20
47.38
44.21
41.12
38.56
36.87
36.14
36.15
36.34
36.00
34.48
31.42
26.93
21.58
16.25
11.82
8.87
7.49
7.35
7.90
8.62
9.18
9.42
9.28
8.73
7.79
6.53
5.15
3.91
3.09
2.84
3.16
3.90
4.84
5.81
6.74
7.68
8.75
10.03
11.53
13.09
14.41
15.19
15.23
14.50
13.23
11.76
10.43
9.47
8.94
8.72
8.66
8.64
8.52
8.20
7.55
6.41
4.70
2.45
-0.11
-2.71
-5.15
-7.42
-9.71
-12.28
-15.24
-18.50
-21.78
-24.77
-27.33
-29.48
-31.31
-32.80
-33.75
-33.82
-32.71
-30.39
-27.17
-23.57
-20.06
-16.81
-13.61
-9.96
-5.38
0.38
7.17
14.57
22.05
29.18
35.70
41.42
46.22
49.90
52.25
53.17
52.72
51.13
48.63
45.37
41.28
36.17
29.82
22.18
13.45
4.06
-5.41
-14.44
-22.73
-30.17
-36.76
-42.48
-47.24
-50.93
-53.55
-55.31
-56.56
-57.63
-58.68
-59.56
-59.94
-59.45
-57.90
-55.35
-52.07
-48.39
-44.63
-41.02
-37.67
-34.65
-31.96
-29.60
-27.53
-25.71
-24.03
-22.39
-20.66
-18.79
-16.81
-14.85
-13.08
-11.70
-10.77
-10.20
-9.75
-9.12
-8.10
-6.69
-5.05
-3.50
-2.27
-1.44
-0.90
-0.37
0.39
1.52
3.06
4.95
7.17
9.76
12.82
16.41
20.48
24.88
29.35
33.62
37.44
40.60
42.96
44.41
44.95
44.64
43.64
42.20
40.59
39.08
37.82
36.81
35.97
35.19
34.34
33.39
32.35
31.28
30.24
29.28
28.46
27.77
27.16
26.46
25.41
23.79
21.51
18.65
15.47
12.29
9.40
6.97
5.04
3.61
2.63
1.96
1.42
0.73
-0.34
-1.93
-4.02
-6.51
-9.29
-12.34
-15.76
-19.65
-24.07
-28.92
-33.97
-38.89
-43.36
-47.10
-49.85
-51.36
-51.36
-49.65
-46.21
-41.17
-34.88
-27.74
-20.10
-12.25
-4.39
3.25
10.38
16.60
21.48
24.68
26.02
25.58
23.61
20.56
16.98
13.46
10.52
8.56
7.81
8.25
9.72
11.94
14.62
17.48
20.28
22.82
24.88
26.30
26.93
26.71
25.65
23.78
21.22
18.02
14.29
10.12
5.64
1.00
-3.64
-8.10
-12.12
-15.47
-17.97
-19.54
-20.26
-20.32
-19.98
-19.44
-18.83
-18.20
-17.61
-17.17
-17.02
-17.24
-17.80
-18.53
-19.22
-19.73
-20.05
-20.28
-20.58
-21.03
-21.59
-22.18
-22.67
-22.98
-23.13
-23.18
-23.22
-23.34
-23.61
-24.08
-24.77
-25.68
-26.77
-28.04
-29.49
-31.19
-33.26
-35.78
-38.69
-41.81
-44.80
-47.25
-48.78
-49.15
-48.30
-46.31
-43.40
-39.79
-35.67
-31.12
-26.10
-20.51
-14.27
-7.46
-0.37
6.58
12.84
17.99
21.71
23.89
24.58
23.97
22.39
20.32
18.33
17.00
16.76
17.72
19.65
22.09
24.53
26.62
28.30
29.73
31.13
32.61
34.09
35.32
36.06
36.18
35.66
34.56
32.91
30.63
27.63
23.90
19.60
15.07
10.70
6.86
3.74
1.36
-0.36
-1.56
-2.36
-2.85
-3.12
-3.23
-3.25
-3.22
-3.15
-3.01
-2.73
-2.28
-1.71
-1.12
-0.67
-0.52
-0.71
-1.19
-1.80
-2.33
-2.63
-2.62
-2.28
-1.63
-0.73
0.32
1.39
2.30
2.95
3.31
3.45
3.51
3.57
3.62
3.63
3.55
3.43
3.38
3.48
3.71
3.93
3.96
3.70
3.24
2.79
2.58
2.67
2.97
3.27
3.36
3.19
2.83
2.43
2.07
1.75
1.35
0.80
0.10
-0.63
-1.25
-1.69
-1.98
-2.22
-2.49
-2.82
-3.14
-3.28
-3.14
-2.68
-1.97
-1.17
-0.48
0.01
0.29
0.46
0.65
0.98
1.51
2.20
2.97
3.69
4.29
4.71
4.91
4.90
4.67
4.26
3.77
3.31
2.97
2.77
2.68
2.66
2.68
2.75
2.87
3.03
3.16
3.18
3.05
2.82
2.58
2.44
2.41
2.40
2.31
2.05
1.61
1.08
0.60
0.24
0.03
-0.12
-0.27
-0.51
-0.85
-1.27
-1.76
-2.28
-2.80
-3.29
-3.74
-4.15
-4.52
-4.81
-4.93
-4.83
-4.43
-3.79
-3.01
-2.27
-1.73
-1.43
-1.30
-1.22
-1.07
-0.79
-0.44
-0.08
0.26
0.61
1.01
1.50
2.07
2.66
3.24
3.80
4.42
5.20
6.20
7.42
8.80
10.26
11.76
13.33
15.02
16.92
19.03
21.22
23.31
25.16
26.71
28.11
29.61
31.44
33.65
36.11
38.55
40.74
42.68
44.60
46.88
49.79
53.34
57.22
60.87
63.72
65.29
65.19
63.14
58.93
52.40
43.59
32.78
20.51
7.57
-5.27
-17.31
-28.09
-37.35
-44.95
-50.84
-54.91
-57.10
-57.39
-55.93
-53.11
-49.52
-45.86
-42.69
-40.30
-38.64
-37.45
-36.35
-35.16
-33.87
-32.66
-31.78
-31.33
-31.27
-31.44
-31.71
-31.99
-32.31
-32.79
-33.50
-34.47
-35.58
-36.59
-37.24
-37.32
-36.75
-35.68
-34.36
-33.07
-32.00
-31.18
-30.49
-29.74
-28.75
-27.37
-25.49
-23.01
-19.73
-15.44
-9.97
-3.28
4.47
12.90
21.51
29.75
37.23
43.64
48.85
52.79
55.34
56.42
55.95
53.98
50.70
46.36
41.21
35.38
28.94
21.92
14.44
6.82
-0.55
-7.20
-12.78
-17.08
-20.05
-21.75
-22.32
-21.90
-20.71
-18.95
-16.82
-14.43
-11.80
-8.93
-5.86
-2.68
0.40
3.18
5.52
7.39
8.81
9.82
10.46
10.76
10.79
10.64
10.43
10.22
10.02
9.77
9.37
8.75
7.96
7.07
6.21
5.49
4.91
4.41
3.85
3.01
1.71
-0.16
-2.54
-5.26
-8.02
-10.57
-12.73
-14.46
-15.79
-16.77
-17.38
-17.56
-17.27
-16.56
-15.56
-14.47
-13.47
-12.66
-12.05
-11.61
-11.37
-11.42
-11.93
-13.05
-14.82
-17.14
-19.74
-22.21
-24.01
-24.60
-23.48
-20.38
-15.29
-8.47
-0.39
8.34
17.13
25.49
32.96
39.15
43.70
46.34
46.93
45.54
42.40
37.82
32.20
25.91
19.33
12.82
6.73
1.35
-3.11
-6.54
-8.93
-10.36
-10.98
-11.01
-10.69
-10.25
-9.84
-9.50
-9.18
-8.81
-8.36
-7.87
-7.40
-7.01
-6.64
-6.16
-5.42
-4.35
-2.99
-1.50
-0.05
1.28
2.54
3.88
5.42
7.21
9.17
11.12
12.90
14.41
15.60
16.43
16.83
16.69
15.93
14.52
12.55
10.20
7.62
4.98
2.36
-0.19
-2.65
-5.00
-7.26
-9.44
-11.55
-13.57
-15.43
-17.06
-18.37
-19.31
-19.86
-20.00
-19.77
-19.23
-18.50
-17.73
-17.08
-16.69
-16.63
-16.89
-17.38
-17.96
-18.51
-18.92
-19.09
-18.96
-18.44
-17.46
-15.93
-13.74
-10.83
-7.16
-2.83
1.98
6.91
11.58
15.54
18.47
20.15
20.55
19.80
18.05
15.52
12.41
8.86
5.02
1.07
-2.81
-6.42
-9.54
-12.07
-13.98
-15.31
-16.13
-16.49
-16.37
-15.71
-14.50
-12.78
-10.68
-8.36
-5.94
-3.41
-0.68
2.36
5.73
9.35
13.04
16.64
20.08
23.29
26.21
28.69
30.46
31.25
30.90
29.42
27.00
23.96
20.64
17.28
14.04
10.96
8.08
5.43
3.10
1.18
-0.29
-1.39
-2.29
-3.22
-4.32
-5.62
-7.00
-8.28
-9.35
-10.19
-10.89
-11.58
-12.34
-13.12
-13.78
-14.10
-13.88
-12.98
-11.43
-9.38
-7.09
-4.83
-2.80
-1.09
0.27
1.26
1.81
1.89
1.50
0.76
-0.09
-0.81
-1.24
-1.38
-1.36
-1.35
-1.47
-1.77
-2.22
-2.77
-3.37
-4.04
-4.79
-5.63
-6.49
-7.27
-7.87
-8.24
-8.46
-8.70
-9.12
-9.81
-10.69
-11.59
-12.32
-12.78
-13.06
-13.30
-13.62
-14.00
-14.25
-14.15
-13.58
-12.54
-11.14
-9.47
-7.54
-5.27
-2.55
0.58
3.97
7.30
10.28
12.68
14.43
15.62
16.40
16.93
17.34
17.71
18.10
18.48
18.82
19.03
19.09
19.03
18.95
19.03
19.43
20.26
21.46
22.88
24.33
25.62
26.67
27.53
28.31
29.10
29.90
30.59
30.92
30.64
29.60
27.81
25.50
23.04
20.85
19.25
18.35
18.09
18.23
18.48
18.57
18.26
17.42
15.95
13.87
11.29
8.45
5.66
3.19
1.17
-0.40
-1.68
-2.84
-3.96
-5.00
-5.82
-6.32
-6.44
-6.25
-5.90
-5.56
-5.36
-5.34
-5.49
-5.79
-6.21
-6.73
-7.27
-7.72
-7.93
-7.79
-7.38
-6.94
-6.92
-7.76
-9.71
-12.66
-16.15
-19.51
-22.06
-23.39
-23.40
-22.31
-20.46
-18.19
-15.70
-13.09
-10.37
-7.55
-4.68
-1.79
1.05
3.78
6.28
8.37
9.86
10.64
10.67
10.01
8.76
6.95
4.57
1.61
-1.91
-5.83
-9.83
-13.48
-16.40
-18.30
-19.09
-18.84
-17.74
-15.99
-13.75
-11.21
-8.50
-5.79
-3.29
-1.22
0.25
1.09
1.46
1.69
2.09
2.83
3.78
4.56
4.69
3.82
1.94
-0.62
-3.32
-5.64
-7.32
-8.38
-9.05
-9.62
-10.25
-10.95
-11.62
-12.09
-12.26
-12.05
-11.44
-10.43
-9.04
-7.40
-5.67
-4.10
-2.88
-2.11
-1.78
-1.80
-2.07
-2.54
-3.22
-4.08
-5.01
-5.84
-6.37
-6.48
-6.22
-5.75
-5.28
-4.96
-4.84
-4.83
-4.80
-4.64
-4.34
-3.95
-3.61
-3.41
-3.47
-3.78
-4.30
-4.92
-5.51
-5.97
-6.26
-6.38
-6.45
-6.56
-6.75
-6.96
-7.05
-6.84
-6.25
-5.30
-4.11
-2.82
-1.51
-0.15
1.34
3.02
4.83
6.62
8.15
9.27
9.91
10.19
10.34
10.58
11.00
11.55
12.01
12.09
11.61
10.58
9.20
7.80
6.66
5.91
5.44
4.96
4.17
2.80
0.79
-1.81
-4.83
-8.05
-11.26
-14.26
-16.85
-18.90
-20.33
-21.14
-21.40
-21.27
-20.87
-20.28
-19.54
-18.62
-17.48
-16.08
-14.47
-12.73
-10.95
-9.21
-7.53
-5.93
-4.40
-2.97
-1.70
-0.61
0.32
1.18
2.06
3.03
4.06
5.10
6.01
6.74
7.30
7.75
8.14
8.48
8.74
8.88
8.92
8.96
9.13
9.55
10.25
11.11
11.93
12.48
12.65
12.54
12.35
12.31
12.51
12.83
12.99
12.74
12.01
11.03
10.25
10.12
10.83
12.20
13.80
15.10
15.81
15.96
15.97
16.43
17.98
21.02
25.73
31.91
39.01
46.01
51.54
54.22
53.11
48.26
40.86
32.99
26.89
24.16
25.10
28.75
33.33
37.00
38.56
37.71
34.93
31.12
27.24
24.08
22.18
21.83
23.05
25.52
28.65
31.58
33.41
33.38
31.15
26.86
21.17
15.01
9.43
5.30
3.10
2.82
3.98
5.80
7.49
8.42
8.26
6.92
4.42
0.78
-4.08
-10.20
-17.54
-25.83
-34.61
-43.38
-51.71
-59.36
-66.27
-72.46
-77.99
-82.90
-87.28
-91.19
-94.61
-97.41
-99.32
-100.02
-99.26
-96.94
-93.17
-88.20
-82.30
-75.74
-68.77
-61.60
-54.45
-47.52
-40.90
-34.60
-28.59
-22.82
-17.28
-12.08
-7.31
-3.04
0.71
4.04
7.12
10.08
13.02
15.99
18.98
22.02
25.16
28.46
31.95
35.57
39.20
42.65
45.75
48.35
50.33
51.57
51.93
51.31
49.73
47.37
44.53
41.56
38.71
36.13
33.79
31.60
29.41
27.10
24.58
21.80
18.83
15.77
12.75
9.76
6.65
3.12
-1.15
-6.34
-12.39
-18.99
-25.72
-32.25
-38.38
-44.18
-49.81
-55.46
-61.16
-66.75
-71.91
-76.25
-79.51
-81.58
-82.53
-82.56
-81.89
-80.65
-78.93
-76.74
-74.10
-71.02
-67.40
-63.12
-57.98
-51.82
-44.63
-36.53
-27.75
-18.59
-9.30
-0.07
8.93
17.53
25.59
32.96
39.63
45.64
51.10
56.09
60.58
64.44
67.46
69.47
70.38
70.32
69.54
68.34
67.01
65.64
64.19
62.49
60.46
58.11
55.64
53.26
51.18
49.42
47.80
46.00
43.69
40.63
36.78
32.30
27.45
22.56
17.90
13.65
9.95
6.88
4.50
2.85
1.98
1.94
2.77
4.49
7.06
10.30
13.92
17.46
20.38
22.22
22.65
21.56
19.04
15.34
10.75
5.62
0.28
-4.94
-9.72
-13.80
-17.03
-19.42
-21.10
-22.26
-23.14
-23.89
-24.54
-25.09
-25.44
-25.55
-25.39
-24.99
-24.37
-23.51
-22.41
-21.05
-19.45
-17.72
-16.00
-14.44
-13.14
-12.11
-11.26
-10.46
-9.63
-8.73
-7.84
-7.01
-6.31
-5.71
-5.19
-4.70
-4.25
-3.88
-3.62
-3.46
-3.37
-3.28
-3.15
-3.03
-2.99
-3.10
-3.35
-3.62
-3.76
-3.62
-3.11
-2.29
-1.27
-0.21
0.76
1.56
2.14
2.51
2.67
2.72
2.72
2.81
3.04
3.44
3.91
4.32
4.54
4.50
4.21
3.72
3.11
2.44
1.75
1.11
0.57
0.20
-0.05
-0.30
-0.76
-1.56
-2.72
-4.04
-5.20
-5.84
-5.75
-4.91
-3.47
-1.70
0.15
1.92
3.50
4.86
5.96
6.74
7.19
7.35
7.30
7.08
6.73
6.20
5.46
4.53
3.50
2.55
1.85
1.50
1.45
1.57
1.61
1.35
0.66
-0.46
-1.86
-3.26
-4.38
-4.98
-4.96
-4.41
-3.53
-2.60
-1.84
-1.41
-1.35
-1.60
-2.03
-2.52
-2.96
-3.27
-3.43
-3.43
-3.29
-3.04
-2.75
-2.50
-2.38
-2.39
-2.50
-2.58
-2.51
-2.20
-1.63
-0.86
0.04
1.00
1.94
2.76
3.34
3.60
3.51
3.19
2.84
2.70
2.90
3.45
4.20
4.96
5.57
5.98
6.21
6.30
6.28
6.14
5.86
5.45
4.96
4.44
3.92
3.43
2.94
2.46
1.97
1.48
1.00
0.51
0.03
-0.44
-0.89
-1.29
-1.69
-2.14
-2.73
-3.52
-4.50
-5.61
-6.73
-7.78
-8.69
-9.47
-10.14
-10.75
-11.30
-11.79
-12.17
-12.41
-12.51
-12.47
-12.33
-12.06
-11.67
-11.17
-10.59
-9.97
-9.36
-8.76
-8.10
-7.34
-6.43
-5.39
-4.25
-3.09
-1.93
-0.81
0.25
1.18
1.93
2.44
2.72
2.81
2.78
2.64
2.35
1.82
1.00
-0.01
-0.99
-1.64
-1.76
-1.30
-0.42
0.62
1.56
2.34
3.10
4.14
5.78
8.26
11.56
15.48
19.62
23.53
26.81
29.17
30.53
30.98
30.75
30.13
29.40
28.76
28.25
27.67
26.69
24.99
22.34
18.80
14.63
10.22
5.91
1.94
-1.60
-4.69
-7.38
-9.67
-11.59
-13.21
-14.58
-15.72
-16.62
-17.26
-17.66
-18.00
-18.45
-19.13
-19.97
-20.67
-20.80
-19.95
-17.87
-14.55
-10.23
-5.35
-0.43
3.95
7.33
9.36
9.94
9.29
7.92
6.62
6.21
7.41
10.62
15.82
22.59
30.16
37.61
44.06
48.87
51.80
53.02
52.99
52.25
51.18
49.85
48.10
45.64
42.31
38.14
33.38
28.32
23.16
17.98
12.73
7.42
2.15
-2.91
-7.58
-11.80
-15.60
-19.12
-22.48
-25.72
-28.80
-31.64
-34.16
-36.31
-38.10
-39.54
-40.65
-41.46
-42.00
-42.33
-42.54
-42.68
-42.80
-42.86
-42.82
-42.58
-42.05
-41.13
-39.75
-37.90
-35.62
-33.00
-30.12
-27.04
-23.78
-20.36
-16.78
-13.10
-9.37
-5.67
-2.04
1.46
4.76
7.74
10.30
12.38
13.97
15.19
16.16
16.94
17.53
17.82
17.72
17.17
16.21
14.92
13.41
11.71
9.87
7.90
5.85
3.80
1.83
0.01
-1.67
-3.26
-4.88
-6.56
-8.32
-10.07
-11.67
-13.04
-14.07
-14.70
-14.87
-14.52
-13.65
-12.31
-10.60
-8.65
-6.58
-4.45
-2.27
-0.05
2.15
4.24
6.18
8.03
9.95
12.16
14.77
17.70
20.61
23.05
24.54
24.81
23.84
21.83
19.08
15.84
12.19
8.12
3.61
-1.24
-6.16
-10.83
-14.96
-18.46
-21.38
-23.84
-25.89
-27.40
-28.14
-27.90
-26.62
-24.40
-21.49
-18.18
-14.70
-11.21
-7.84
-4.65
-1.68
1.12
3.86
6.71
9.78
13.06
16.39
19.47
22.06
23.99
25.32
26.25
27.04
27.96
29.17
30.74
32.59
34.62
36.63
38.39
39.62
40.10
39.67
38.34
36.23
33.53
30.42
27.02
23.37
19.46
15.38
11.29
7.40
3.89
0.80
-1.93
-4.46
-6.88
-9.13
-11.08
-12.59
-13.59
-14.14
-14.34
-14.21
-13.67
-12.55
-10.74
-8.39
-5.87
-3.68
-2.28
-1.87
-2.32
-3.23
-4.10
-4.51
-4.28
-3.47
-2.37
-1.29
-0.44
0.14
0.58
1.11
1.95
3.23
4.96
6.97
8.92
10.29
10.52
9.21
6.33
2.29
-2.16
-6.18
-9.15
-10.90
-11.65
-11.86
-11.97
-12.23
-12.71
-13.34
-14.00
-14.61
-15.05
-15.19
-14.87
-13.97
-12.48
-10.55
-8.48
-6.62
-5.15
-3.96
-2.64
-0.58
2.66
7.08
12.05
16.50
19.20
19.24
16.28
10.66
3.21
-5.03
-13.06
-20.20
-26.07
-30.62
-34.01
-36.47
-38.24
-39.47
-40.28
-40.69
-40.69
-40.24
-39.32
-37.94
-36.17
-34.11
-31.91
-29.67
-27.41
-25.08
-22.52
-19.61
-16.37
-12.93
-9.53
-6.38
-3.56
-1.01
1.41
3.79
6.07
8.10
9.77
11.19
12.73
14.87
17.88
21.62
25.59
29.22
32.25
34.86
37.46
40.31
43.11
45.11
45.49
43.93
40.88
37.50
35.03
34.29
35.25
37.25
39.36
40.79
41.15
40.40
38.64
35.99
32.50
28.26
23.49
18.53
13.83
9.74
6.44
3.85
1.70
-0.31
-2.45
-4.84
-7.42
-10.06
-12.63
-15.03
-17.27
-19.36
-21.28
-22.95
-24.22
-24.99
-25.33
-25.47
-25.85
-26.89
-28.85
-31.76
-35.41
-39.52
-43.89
-48.45
-53.22
-58.15
-62.98
-67.29
-70.54
-72.25
-72.08
-69.88
-65.69
-59.74
-52.36
-43.97
-35.03
-25.94
-17.09
-8.79
-1.29
5.19
10.47
14.48
17.21
18.77
19.32
19.09
18.28
17.07
15.52
13.59
11.18
8.21
4.77
1.16
-2.15
-4.67
-6.09
-6.40
-5.83
-4.82
-3.79
-3.08
-2.84
-3.11
-3.83
-4.96
-6.51
-8.54
-11.07
-14.02
-17.17
-20.14
-22.55
-24.13
-24.81
-24.74
-24.19
-23.41
-22.52
-21.45
-20.07
-18.21
