1638550664.00
64.000000
-0.00
-0.00
-0.00
-0.00
-0.00
-0.00
-0.00
-0.00
-0.00
-0.00
0.00
0.01
0.01
-0.00
-0.03
-0.05
-0.05
0.00
0.13
0.36
0.66
1.01
1.37
1.72
2.06
2.40
2.79
3.24
3.80
4.42
5.06
5.66
6.20
6.68
7.15
7.68
8.31
9.14
10.09
11.04
11.88
12.56
13.14
13.76
14.65
15.96
17.91
20.32
22.90
25.38
27.58
29.57
31.68
34.32
37.81
42.54
48.15
54.10
59.83
64.97
69.58
74.14
79.34
85.71
93.76
103.00
112.62
121.73
129.77
136.75
143.30
150.75
157.77
166.64
177.95
191.79
206.97
220.57
228.25
225.36
208.53
176.87
132.76
80.05
23.07
-34.94
-92.44
-149.16
-205.23
-260.37
-313.74
-363.88
-409.83
-450.91
-486.49
-515.72
-537.20
-549.17
-549.89
-538.26
-514.06
-478.49
-433.64
-382.16
-326.67
-269.43
-212.16
-156.12
-102.34
-51.69
-5.15
36.41
72.33
102.34
126.57
145.55
159.96
170.53
177.88
182.40
184.37
184.04
181.68
177.62
172.29
166.09
159.36
152.36
145.23
138.03
130.81
123.62
116.53
109.59
102.88
96.45
90.34
84.56
79.12
74.04
69.32
64.97
61.01
57.43
54.23
51.39
48.93
46.84
45.12
43.78
42.79
42.14
41.77
41.61
41.54
41.43
41.09
40.33
38.97
36.86
33.90
30.04
25.32
19.80
13.68
7.18
0.58
-5.83
-11.77
-16.97
-21.26
-24.49
-26.62
-27.65
-27.67
-26.82
-25.24
-23.12
-20.64
-17.94
-15.16
-12.38
-9.65
-7.03
-4.53
-2.17
0.08
2.24
4.35
6.44
8.56
10.79
13.12
15.56
18.14
20.89
23.86
27.08
30.61
34.48
38.73
43.25
47.95
52.76
57.65
62.57
67.53
72.56
77.71
83.09
88.59
94.11
99.65
105.18
110.71
116.23
121.75
127.30
132.91
138.30
143.24
147.52
150.93
153.18
153.94
152.74
148.88
143.76
137.92
131.66
125.20
118.69
112.23
105.89
99.74
93.89
88.47
83.31
78.33
73.51
68.85
64.38
60.13
56.18
52.59
49.46
46.63
44.02
41.57
39.25
37.08
35.09
33.32
31.87
30.85
30.20
29.91
29.95
30.34
31.07
32.10
33.43
35.02
36.84
38.76
40.64
42.37
43.76
44.64
44.82
44.10
42.31
39.35
35.08
29.49
22.59
14.51
5.40
-4.49
-14.88
-25.47
-35.94
-46.02
-55.43
-63.97
-71.49
-77.87
-83.00
-86.83
-89.29
-90.40
-90.18
-88.75
-86.29
-83.00
-79.06
-74.65
-69.86
-64.78
-59.48
-54.04
-48.62
-43.39
-38.57
-34.33
-30.72
-27.70
-25.12
-22.87
-20.89
-19.29
-18.34
-18.35
-19.53
-21.87
-25.06
-28.63
-32.13
-35.32
-38.36
-41.74
-46.12
-51.96
-59.34
-67.81
-76.56
-84.81
-92.17
-98.91
-105.90
-114.25
-124.79
-137.67
-152.26
-167.45
-182.10
-195.57
-207.95
-220.10
-233.31
-249.16
-269.12
-294.21
-324.10
-356.41
-386.51
-408.29
-415.89
-405.86
-378.53
-338.01
-290.58
-242.47
-197.98
-158.85
-124.91
-95.42
-70.07
-49.17
-33.14
-21.79
-14.07
-8.26
-2.70
3.65
10.86
18.15
24.48
29.03
31.61
32.73
33.26
33.93
35.08
36.39
37.05
36.23
33.37
28.43
21.97
14.81
7.82
1.50
-4.02
-9.03
-14.02
-19.49
-25.83
-33.31
-42.06
-51.95
-62.45
-72.35
-79.85
-82.78
-79.22
-68.22
-50.20
-27.04
-1.47
23.66
46.16
64.87
79.58
90.66
98.55
103.58
105.91
105.76
103.51
99.81
95.30
90.51
85.82
81.34
77.20
73.53
70.44
67.94
65.82
63.64
60.84
57.07
52.22
46.53
40.45
34.39
28.54
22.89
17.18
11.10
4.51
-2.52
-9.72
-16.60
-22.80
-28.12
-32.67
-36.98
-41.81
-47.96
-55.92
-65.39
-75.10
-82.84
-86.04
-82.44
-71.02
-52.45
-28.95
-3.60
20.60
41.54
58.24
70.76
79.60
85.27
88.02
87.99
85.45
80.96
75.36
69.54
64.19
59.56
55.47
51.50
47.29
42.67
37.84
33.17
28.96
25.26
21.73
17.86
13.14
7.38
0.71
-6.38
-13.33
-19.66
-25.16
-29.80
-33.74
-37.25
-40.64
-44.33
-48.81
-54.52
-61.60
-69.64
-77.46
-83.27
-85.04
-81.14
-70.94
-55.10
-35.41
-14.25
6.08
23.84
38.10
48.61
55.49
59.00
59.49
57.45
53.54
48.71
43.80
39.49
36.03
33.23
30.71
28.11
25.42
22.79
20.48
18.52
16.62
14.20
10.71
5.85
-0.25
-7.09
-13.96
-20.25
-25.61
-30.14
-34.29
-38.82
-44.46
-51.68
-60.30
-69.32
-77.02
-81.17
-79.80
-71.75
-57.18
-37.64
-15.58
6.35
26.04
42.27
54.80
63.89
69.96
73.27
73.89
71.97
67.96
62.64
56.91
51.51
46.71
42.32
37.93
33.21
28.20
23.31
19.06
15.79
13.40
11.29
8.61
4.64
-0.97
-7.95
-15.58
-23.02
-29.50
-34.74
-39.02
-43.06
-47.87
-54.41
-63.08
-73.53
-84.35
-93.28
-97.60
-95.02
-84.50
-66.63
-43.60
-18.48
5.73
26.91
44.11
57.35
67.06
73.61
77.12
77.56
75.11
70.32
64.08
57.39
50.98
45.13
39.69
34.25
28.45
22.23
15.85
9.78
4.35
-0.38
-4.88
-9.89
-16.20
-24.33
-34.27
-45.56
-57.32
-68.70
-79.09
-88.40
-96.95
-105.52
-115.04
-126.39
-140.16
-156.25
-173.73
-190.72
-204.71
-213.28
-214.76
-209.03
-197.59
-183.25
-169.33
-158.80
-153.56
-153.94
-158.66
-164.91
-169.02
-167.17
-156.42
-135.49
-105.02
-67.23
-25.28
17.53
58.48
95.81
129.03
158.68
185.99
212.11
237.37
260.82
280.32
293.33
297.96
293.77
281.98
264.97
245.44
225.68
207.18
190.73
176.53
164.36
153.60
143.34
132.60
120.63
107.18
92.66
78.13
65.05
54.77
48.11
45.12
44.85
45.66
45.67
43.42
38.32
30.78
21.96
13.30
5.78
-0.48
-6.49
-14.10
-25.46
-42.27
-65.07
-92.82
-123.10
-152.80
-179.09
-200.29
-216.24
-228.08
-237.80
-247.61
-259.33
-273.99
-291.43
-310.24
-327.97
-341.93
-350.15
-352.27
-349.81
-345.52
-342.37
-342.31
-345.71
-351.22
-356.37
-358.22
-353.91
-341.15
-318.36
-285.09
-242.09
-191.20
-135.07
-76.64
-18.55
37.31
90.20
140.55
189.50
237.89
285.15
328.53
363.38
384.70
389.10
376.56
350.74
317.75
283.86
253.55
228.38
207.42
188.49
169.29
148.10
123.76
95.64
63.71
28.91
-6.69
-40.07
-68.06
-88.32
-100.27
-105.26
-106.04
-105.72
-106.40
-108.41
-110.12
-108.75
-101.53
-86.97
-65.45
-38.98
-10.37
17.86
44.01
67.38
87.85
105.38
119.79
130.90
138.74
143.71
146.61
148.23
149.11
149.46
149.20
148.12
146.04
142.87
138.53
132.99
126.33
118.77
110.71
102.57
94.63
86.92
79.19
71.11
62.53
53.51
44.42
35.68
27.60
20.27
13.52
7.00
0.18
-7.57
-16.80
-27.71
-39.78
-51.58
-60.90
-65.32
-62.95
-53.15
-36.70
-15.57
7.76
30.96
52.25
70.48
85.02
95.57
102.20
105.28
105.49
103.79
101.09
98.09
95.17
92.38
89.55
86.53
83.22
79.71
76.21
72.93
69.93
67.00
63.67
59.29
53.36
45.75
36.82
27.30
18.00
9.53
2.06
-4.75
-11.63
-19.45
-28.87
-40.00
-52.09
-63.52
-72.04
-75.41
-72.06
-61.65
-45.22
-24.88
-3.17
17.65
36.03
51.31
63.39
72.47
78.76
82.37
83.53
82.62
80.26
77.17
74.00
71.07
68.41
65.88
63.31
60.68
58.10
55.68
53.33
50.65
47.01
41.84
34.87
26.31
16.78
7.12
-1.95
-10.06
-17.31
-24.23
-31.60
-40.16
-50.27
-61.55
-72.70
-81.64
-86.05
-84.12
-75.22
-60.17
-41.03
-20.36
-0.40
17.50
32.93
46.08
57.22
66.35
73.16
77.28
78.66
77.70
75.22
72.13
69.09
66.30
63.55
60.45
56.68
52.28
47.61
43.23
39.52
36.49
33.71
30.44
26.01
20.10
12.90
4.98
-2.96
-10.31
-16.77
-22.45
-27.77
-33.32
-39.78
-47.63
-57.02
-67.48
-77.79
-86.10
-90.36
-88.91
-80.94
-66.92
-48.42
-27.72
-7.14
11.55
27.36
40.04
49.78
56.86
61.43
63.61
63.59
61.87
59.23
56.53
54.42
53.12
52.29
51.31
49.58
46.80
43.03
38.70
34.24
29.96
25.86
21.71
17.15
11.90
5.85
-0.88
-7.92
-14.84
-21.17
-26.61
-31.20
-35.23
-39.29
-44.05
-50.03
-57.32
-65.53
-73.60
-80.06
-83.27
-81.78
-74.77
-62.41
-45.80
-26.83
-7.64
9.87
24.45
35.54
43.21
47.80
49.74
49.46
47.42
44.20
40.43
36.74
33.46
30.64
28.06
25.39
22.49
19.48
16.63
14.26
12.34
10.53
8.22
4.85
0.25
-5.30
-11.18
-16.75
-21.58
-25.62
-29.21
-32.88
-37.24
-42.76
-49.60
-57.41
-65.28
-71.68
-74.85
-73.31
-66.44
-54.76
-39.81
-23.65
-8.21
5.24
16.15
24.53
30.56
34.45
36.33
36.36
34.87
32.36
29.47
26.73
24.48
22.81
21.63
20.77
20.06
19.37
18.53
17.32
15.47
12.72
8.95
4.22
-1.21
-6.93
-12.55
-17.79
-22.70
-27.62
-33.12
-39.70
-47.50
-55.99
-63.89
-69.41
-70.78
-66.82
-57.40
-43.52
-26.96
-9.84
6.02
19.43
29.88
37.37
42.17
44.63
45.07
43.85
41.38
38.15
34.68
31.36
28.41
25.76
23.25
20.76
18.28
15.93
13.77
11.66
9.27
6.20
2.19
-2.69
-8.05
-13.36
-18.21
-22.49
-26.42
-30.50
-35.28
-41.20
-48.44
-56.66
-64.95
-71.81
-75.48
-74.41
-67.83
-56.03
-40.39
-22.91
-5.70
9.60
22.13
31.67
38.46
42.87
45.25
45.85
44.99
43.02
40.38
37.52
34.72
32.12
29.69
27.40
25.24
23.30
21.61
20.08
18.42
16.17
12.96
8.62
3.31
-2.52
-8.35
-13.80
-18.74
-23.30
-27.87
-32.92
-38.83
-45.68
-53.00
-59.72
-64.26
-65.02
-60.89
-51.73
-38.41
-22.64
-6.33
8.85
21.82
32.07
39.50
44.19
46.29
46.07
43.97
40.60
36.70
32.90
29.61
26.93
24.75
22.80
20.93
19.10
17.39
15.88
14.47
12.86
10.57
7.23
2.70
-2.77
-8.67
-14.40
-19.53
-23.92
-27.74
-31.44
-35.57
-40.54
-46.46
-52.93
-58.93
-62.95
-63.45
-59.33
-50.40
-37.51
-22.30
-6.73
7.54
19.50
28.79
35.54
40.02
42.43
42.94
41.70
39.03
35.37
31.28
27.27
23.71
20.80
18.56
16.89
15.58
14.40
13.09
11.38
9.04
5.90
1.92
-2.77
-7.92
-13.16
-18.08
-22.43
-26.27
-29.93
-34.01
-39.10
-45.40
-52.42
-58.99
-63.44
-64.10
-59.84
-50.43
-36.69
-20.19
-2.86
13.50
27.65
38.92
47.23
52.82
55.95
56.94
55.99
53.42
49.64
45.13
40.46
36.01
31.98
28.37
25.02
21.79
18.68
15.75
13.07
10.54
7.87
4.58
0.27
-5.15
-11.33
-17.57
-23.11
-27.43
-30.51
-32.81
-35.07
-37.99
-42.04
-47.30
-53.39
-59.42
-64.19
-66.21
-64.17
-57.39
-46.10
-31.50
-15.47
0.06
13.60
24.41
32.51
38.28
42.16
44.42
45.15
44.47
42.63
40.11
37.41
34.95
32.90
31.18
29.58
27.94
26.19
24.41
22.72
21.16
19.58
17.67
15.06
11.42
6.71
1.18
-4.63
-10.06
-14.60
-18.09
-20.76
-23.17
-25.99
-29.82
-34.95
-41.37
-48.62
-55.81
-61.67
-64.77
-63.82
-58.08
-47.75
-33.95
-18.43
-3.08
10.61
21.85
30.49
36.79
41.11
43.64
44.45
43.62
41.44
38.47
35.46
33.10
31.72
31.20
31.00
30.40
28.88
26.32
23.01
19.36
15.81
12.47
9.22
5.82
2.07
-2.04
-6.35
-10.52
-14.28
-17.46
-20.09
-22.32
-24.39
-26.56
-29.10
-32.29
-36.36
-41.35
-46.86
-52.02
-55.49
-55.84
-52.08
-44.01
-32.48
-19.02
-5.39
6.98
17.26
25.18
30.85
34.45
36.15
36.09
34.53
31.88
28.72
25.67
23.24
21.67
20.92
20.62
20.30
19.53
18.13
16.23
14.15
12.24
10.61
9.05
7.16
4.51
0.91
-3.46
-8.20
-12.73
-16.64
-19.70
-21.97
-23.82
-25.81
-28.56
-32.51
-37.71
-43.61
-49.04
-52.47
-52.45
-48.11
-39.54
-27.74
-14.36
-1.13
10.58
20.05
27.17
32.18
35.40
37.04
37.15
35.82
33.33
30.14
26.89
24.12
22.13
20.84
19.92
18.94
17.61
15.84
13.78
11.67
9.66
7.70
5.58
2.95
-0.46
-4.69
-9.52
-14.52
-19.16
-23.13
-26.36
-29.12
-31.93
-35.33
-39.79
-45.50
-52.25
-59.35
-65.68
-69.88
-70.75
-67.60
-60.58
-50.67
-39.45
-28.73
-20.05
-14.34
-11.79
-12.02
-14.38
-18.21
-23.04
-28.68
-34.99
-41.86
-49.04
-56.24
-63.26
-70.16
-77.22
-84.79
-93.13
-102.16
-111.39
-120.07
-127.33
-132.36
-134.51
-133.35
-128.50
-119.68
-106.64
-89.27
-67.71
-42.60
-15.14
13.00
39.85
63.52
82.50
95.84
103.34
105.51
103.57
99.27
94.63
91.53
91.16
93.85
98.88
104.93
110.53
114.58
116.60
116.62
114.91
111.73
107.24
101.49
94.71
87.29
79.80
72.76
66.48
60.97
55.91
50.99
46.00
41.03
36.30
32.10
28.53
25.45
22.50
19.19
15.17
10.32
4.81
-0.95
-6.47
-11.35
-15.37
-18.62
-21.51
-24.56
-28.35
-33.24
-39.13
-45.39
-50.89
-54.22
-54.10
-49.76
-41.24
-29.45
-15.92
-2.40
9.64
19.32
26.40
31.13
33.97
35.28
35.31
34.24
32.30
29.89
27.43
25.25
23.40
21.69
19.80
17.54
14.98
12.52
10.64
9.74
9.83
10.50
11.07
10.81
9.25
6.36
2.48
-1.80
-6.00
-9.81
-13.26
-16.55
-19.98
-23.77
-28.00
-32.56
-37.04
-40.73
-42.64
-41.75
-37.35
-29.38
-18.61
-6.40
5.63
16.13
24.39
30.37
34.43
37.00
38.29
38.33
37.11
34.85
32.00
29.21
27.03
25.66
24.92
24.38
23.62
22.46
21.02
19.60
18.45
17.57
16.65
15.19
12.73
9.09
4.47
-0.62
-5.55
-9.79
-13.15
-15.67
-17.67
-19.54
-21.64
-24.21
-27.35
-30.95
-34.56
-37.40
-38.38
-36.41
-30.74
-21.28
-8.74
5.60
20.25
33.97
46.02
56.19
64.57
71.31
76.51
80.23
82.59
83.89
84.59
85.19
86.02
87.13
88.24
88.94
88.92
88.10
86.81
85.57
84.79
84.50
84.17
82.80
79.22
72.50
62.24
48.72
32.81
15.74
-1.23
-17.02
-30.97
-42.89
-53.00
-61.84
-70.01
-77.99
-85.89
-93.32
-99.42
-103.01
-102.92
-98.36
-89.28
-76.42
-61.24
-45.49
-30.72
-17.91
-7.37
1.11
7.99
13.64
18.27
21.99
24.91
27.22
29.29
31.47
34.09
37.24
40.86
44.65
48.32
51.53
54.11
56.06
57.49
58.61
59.62
60.72
62.04
63.61
65.13
65.89
64.84
60.72
52.64
40.51
25.22
8.41
-8.06
-22.85
-35.42
-45.90
-54.67
-61.72
-66.38
-67.59
-64.35
-56.41
-44.52
-30.36
-15.92
-2.85
8.01
16.69
23.85
30.16
35.99
41.39
46.27
50.81
55.48
60.86
67.15
73.83
79.76
83.61
84.54
82.44
77.81
71.20
62.61
51.41
36.68
18.15
-3.24
-25.37
-45.70
-62.36
-75.03
-84.88
-93.68
-102.67
-111.70
-119.39
-123.95
-124.28
-120.53
-114.00
-106.37
-98.79
-91.56
-84.25
-76.33
-67.60
-58.28
-48.91
-39.92
-31.47
-23.42
-15.63
-8.04
-0.94
5.09
9.39
11.33
10.69
7.69
3.23
-1.54
-5.39
-7.39
-7.27
-5.37
-2.59
0.12
1.90
2.32
1.25
-1.20
-4.88
-9.68
-15.45
-21.95
-28.78
-35.40
-41.31
-46.18
-50.02
-53.17
-56.14
-59.31
-62.65
-65.61
-67.18
-66.32
-62.34
-55.22
-45.62
-34.66
-23.49
-12.97
-3.59
4.47
11.10
16.14
19.38
20.65
20.01
17.75
14.33
10.25
5.94
1.67
-2.37
-6.08
-9.33
-12.00
-14.09
-15.76
-17.26
-18.78
-20.39
-22.00
-23.51
-24.98
-26.72
-29.23
-33.01
-38.29
-44.96
-52.52
-60.17
-66.87
-71.46
-72.86
-70.20
-63.27
-52.64
-39.81
-26.77
-15.50
-7.42
-3.08
-2.20
-4.03
-7.83
-13.09
-19.70
-27.74
-37.39
-48.62
-61.15
-74.42
-87.74
-100.46
-112.14
-122.66
-131.99
-140.14
-146.92
-151.87
-154.27
-153.39
-148.72
-140.14
-127.90
-112.52
-94.60
-74.76
-53.55
-31.50
-9.09
13.28
35.28
56.62
76.97
95.86
112.68
126.78
137.57
144.71
148.11
147.95
144.60
138.49
130.09
119.92
108.69
97.13
86.05
76.05
67.41
59.98
53.27
46.77
40.18
33.55
27.15
21.26
15.89
10.78
5.56
-0.02
-5.91
-11.78
-17.13
-21.48
-24.37
-25.37
-24.05
-20.02
-13.15
-3.70
7.56
19.59
31.35
42.13
51.54
59.42
65.55
69.41
70.38
67.94
62.07
53.42
43.21
32.82
23.39
15.47
8.91
3.07
-2.91
-9.76
-17.71
-26.44
-35.12
-42.72
-48.42
-52.01
-53.89
-55.00
-56.32
-58.33
-60.76
-62.59
-62.55
-59.64
-53.62
-44.94
-34.57
-23.51
-12.49
-1.90
8.04
17.09
24.87
30.96
35.05
37.13
37.46
36.55
34.96
33.18
31.51
29.93
28.17
25.71
22.10
17.20
11.47
5.84
1.41
-1.16
-1.95
-1.93
-2.59
-5.34
-10.97
-19.36
-29.58
-40.12
-49.28
-55.50
-57.61
-54.96
-47.55
-36.05
-21.69
-6.03
9.34
23.19
34.85
44.21
51.57
57.25
61.34
63.63
63.78
61.67
57.61
52.31
46.62
41.13
35.99
30.99
26.05
21.46
18.01
16.48
17.18
19.57
22.29
23.70
22.68
19.10
13.95
9.07
6.54
8.16
14.98
26.93
42.86
60.60
77.54
91.18
99.90
103.14
101.46
96.12
88.59
80.20
71.88
64.18
57.25
51.02
45.24
39.63
33.92
27.90
21.37
14.14
6.11
-2.61
-11.58
-20.12
-27.60
-33.66
-38.47
-42.58
-46.62
-50.99
-55.63
-60.04
-63.54
-65.58
-65.89
-64.53
-61.62
-57.28
-51.54
-44.39
-35.96
-26.63
-17.09
-8.16
-0.80
4.14
5.97
4.28
-0.95
-9.20
-19.36
-30.06
-39.88
-47.84
-53.64
-57.55
-60.13
-61.90
-63.14
-63.94
-64.41
-64.89
-66.13
-69.21
-75.27
-85.01
-98.25
-113.65
-128.77
-140.77
-147.36
-147.62
-142.40
-133.92
-124.84
-117.26
-112.19
-109.42
-108.11
-107.19
-105.77
-103.06
-98.32
-90.89
-80.42
-67.29
-52.76
-38.76
-27.18
-19.20
-14.71
-12.34
-9.91
-5.21
3.33
16.07
32.18
49.86
66.87
81.45
93.00
102.41
111.70
122.78
136.07
149.59
159.24
160.07
148.06
121.82
83.23
37.05
-10.08
-51.05
-79.73
-92.19
-87.58
-68.53
-40.53
-10.50
15.39
33.52
43.80
49.32
54.72
64.12
79.49
99.93
122.45
143.44
160.20
171.82
178.92
182.60
183.64
182.19
178.39
173.32
169.25
169.00
174.20
183.77
193.52
197.31
189.55
167.64
133.16
91.17
48.26
10.18
-19.70
-40.61
-53.37
-59.09
-58.37
-51.24
-37.75
-18.58
4.71
29.82
53.99
74.35
88.27
93.74
90.05
78.17
60.70
41.00
21.77
3.88
-13.75
-33.13
-55.38
-79.38
-101.73
-118.16
-125.59
-123.68
-114.95
-103.51
-93.15
-85.96
-82.06
-80.27
-79.25
-78.16
-76.79
-75.25
-73.69
-72.31
-71.39
-71.34
-72.51
-75.01
-78.41
-81.97
-84.96
-87.06
-88.59
-90.37
-93.47
-98.67
-106.15
-115.17
-124.17
-131.04
-133.62
-130.37
-120.67
-105.00
-84.82
-62.37
-40.45
-21.89
-9.01
-2.81
-2.65
-6.40
-11.41
-15.45
-17.55
-17.71
-16.10
-12.27
-4.91
7.24
24.34
44.68
64.98
81.58
92.05
96.01
94.96
91.31
86.99
82.83
78.56
73.59
67.92
62.37
58.23
56.41
56.67
57.52
56.77
52.59
44.39
32.96
20.13
7.82
-2.70
-11.05
-17.56
-22.70
-26.65
-29.28
-30.43
-30.31
-29.66
-29.63
-31.18
-34.63
-39.27
-43.68
-46.30
-46.09
-42.94
-37.52
-30.77
-23.41
-15.86
-8.43
-1.63
3.78
7.26
9.08
10.57
13.82
20.89
32.95
50.06
71.33
95.57
121.71
148.74
175.33
199.45
218.53
230.17
232.99
227.23
214.63
197.77
179.13
160.42
142.36
124.98
108.03
91.35
74.93
58.61
41.75
23.07
0.94
-26.18
-58.92
-96.37
-135.80
-172.80
-202.27
-219.60
-222.06
-209.67
-185.28
-153.77
-120.71
-90.98
-67.67
-51.79
-42.39
-37.19
-33.29
-27.96
-19.26
-6.53
9.53
27.22
44.38
59.17
70.51
78.24
82.73
84.34
82.76
76.72
64.24
43.30
12.96
-25.68
-68.96
-111.00
-144.97
-164.97
-167.66
-153.17
-125.00
-89.20
-53.07
-23.93
-7.81
-8.03
-24.12
-51.25
-81.07
-103.91
-111.87
-101.50
-74.80
-38.07
0.74
34.84
60.36
76.39
83.83
84.24
79.02
69.56
57.55
44.98
33.77
25.11
19.05
14.48
9.51
2.21
-8.84
-24.11
-42.82
-63.08
-82.06
-96.73
-104.72
-105.09
-98.82
-88.48
-77.34
-68.20
-62.51
-60.23
-60.29
-61.37
-62.43
-62.84
-62.20
-60.00
-55.53
-48.14
-37.59
-24.31
-9.31
6.20
21.23
35.30
48.36
60.54
71.81
81.78
89.81
95.14
97.35
96.52
93.45
89.22
84.88
80.84
76.68
71.46
64.55
56.31
48.34
42.89
41.75
45.29
52.30
60.64
68.40
74.66
79.50
83.17
85.30
84.66
79.72
69.71
55.44
39.23
24.10
12.57
5.68
2.94
2.85
3.81
4.83
5.81
7.22
9.43
12.20
14.45
14.67
11.73
5.75
-1.65
-7.76
-9.72
-5.71
4.36
18.98
35.81
52.61
67.91
80.86
90.87
97.17
98.71
94.49
83.95
66.86
43.04
12.29
-24.91
-66.11
-105.93
-136.61
-150.39
-143.06
-116.68
-79.81
-44.82
-23.47
-22.78
-43.23
-79.50
-123.00
-164.50
-195.77
-210.31
-203.93
-175.73
-129.12
-72.16
-16.00
28.22
52.48
54.14
36.00
4.35
-33.65
-71.96
-106.62
-135.48
-157.48
-172.11
-179.02
-178.15
-169.72
-154.29
-132.76
-106.49
-77.51
-48.54
-22.67
-2.84
8.90
11.91
6.99
-3.91
-18.21
-33.23
-46.51
-55.83
-59.25
-55.25
-43.06
-23.03
3.21
32.89
62.49
88.08
105.71
111.97
104.78
84.50
54.52
20.65
-10.41
-33.33
-45.84
-48.87
-45.39
-38.54
-30.06
-19.93
-7.17
8.94
27.78
47.22
64.22
75.79
79.98
76.40
66.23
51.76
35.69
20.41
7.61
-1.68
-6.94
-7.87
-4.50
2.61
12.14
22.16
30.49
35.37
36.00
32.75
26.96
20.37
14.51
10.24
7.66
6.34
5.68
5.28
5.00
4.95
5.22
5.81
6.56
7.25
7.62
7.45
6.50
4.64
1.95
-1.05
-3.44
-4.04
-1.81
3.75
12.36
23.12
34.77
46.20
56.55
65.32
72.21
76.97
79.41
79.46
77.28
73.25
67.84
61.55
54.72
47.57
40.32
33.20
26.49
20.41
14.99
10.10
5.45
0.79
-4.04
-9.10
-14.42
-19.99
-25.71
-31.30
-36.20
-39.52
-40.31
-37.77
-31.70
-22.56
-11.44
0.25
11.10
20.06
26.47
30.11
31.09
29.79
26.78
22.74
18.31
14.00
10.05
6.46
3.00
-0.58
-4.47
-8.66
-12.96
-17.14
-20.98
-24.53
-28.14
-32.41
-38.02
-45.26
-53.77
-62.38
-69.39
-73.01
-71.97
-65.88
-55.25
-41.28
-25.51
-9.47
5.49
18.27
28.04
34.35
37.11
36.73
33.99
29.87
25.37
21.20
17.78
15.22
13.44
12.32
11.77
11.70
11.96
12.31
12.37
11.67
9.67
5.91
0.16
-7.37
-15.87
-23.98
-30.08
-32.65
-30.74
-24.22
-13.80
-0.79
13.31
27.05
39.26
49.07
55.90
59.43
59.71
57.13
52.38
46.26
39.50
32.54
25.54
18.40
11.04
3.53
-3.78
-10.46
-16.11
-20.73
-24.73
-28.88
-34.09
-41.11
-50.18
-60.81
-71.66
-80.79
-86.14
-86.18
-80.41
-69.54
-55.13
-39.00
-22.68
-6.97
7.89
21.88
34.83
46.24
55.39
61.69
64.93
65.31
63.33
59.54
54.38
48.16
41.20
33.83
26.50
19.69
13.78
8.98
5.30
2.45
-0.14
-3.26
-7.79
-14.36
-23.02
-32.96
-42.48
-49.44
-51.91
-48.76
-40.11
-27.19
-11.92
3.75
18.36
31.11
41.78
50.35
56.76
60.77
62.11
60.74
57.02
51.69
45.62
39.56
33.79
28.18
22.33
15.90
8.90
1.73
-4.90
-10.31
-14.21
-16.85
-18.99
-21.67
-25.92
-32.47
-41.60
-53.04
-66.00
-79.16
-90.72
-98.54
-100.54
-95.27
-82.34
-62.89
-39.28
-14.57
8.40
27.69
42.51
53.09
60.07
64.04
65.30
63.91
59.98
53.88
46.27
37.96
29.68
22.02
15.30
9.74
5.48
2.61
1.21
1.13
2.04
3.27
3.99
3.30
0.60
-4.12
-10.03
-15.58
-18.94
-18.57
-13.74
-4.77
7.21
20.82
34.88
48.75
62.19
75.04
86.85
96.87
104.20
108.20
108.86
106.75
102.83
98.05
92.96
87.62
81.85
75.59
69.15
63.31
59.01
56.99
57.31
59.20
61.22
61.56
58.65
51.59
40.41
26.05
10.10
-5.58
-19.26
-29.56
-35.59
-36.83
-33.19
-24.96
-12.83
2.04
18.11
33.64
46.91
56.61
62.13
63.69
62.32
59.43
56.37
53.84
51.67
48.92
44.39
37.27
27.48
15.76
3.25
-9.08
-20.87
-32.35
-44.06
-56.30
-68.85
-80.89
-91.26
-98.99
-103.52
-104.80
-103.10
-98.82
-92.27
-83.77
-73.71
-62.61
-51.09
-39.74
-28.96
-19.00
-10.02
-2.19
4.19
8.82
11.47
12.16
11.09
8.63
5.15
0.98
-3.58
-8.22
-12.52
-15.98
-18.14
-18.69
-17.63
-15.46
-13.07
-11.76
-12.79
-17.07
-24.66
-34.54
-44.80
-53.16
-57.60
-56.97
-51.14
-40.93
-27.71
-13.07
1.32
13.87
23.26
28.68
30.18
28.69
25.77
23.07
21.78
22.30
24.25
26.73
28.56
28.58
25.78
19.54
9.92
-2.16
-14.97
-26.51
-35.16
-40.33
-42.65
-43.64
-44.99
-47.82
-52.35
-57.93
-63.38
-67.38
-68.79
-66.86
-61.26
-52.19
-40.33
-26.75
-12.73
0.48
11.83
20.60
26.35
28.93
28.62
26.17
22.78
19.86
18.59
19.48
22.15
25.40
27.82
28.35
26.80
23.91
20.93
18.99
18.45
18.95
19.62
19.82
19.41
18.72
18.07
17.30
15.68
12.43
7.61
2.56
-0.11
2.35
11.61
27.34
47.27
68.06
86.59
100.81
109.94
114.01
113.25
107.83
98.13
85.08
70.28
55.72
43.05
33.04
25.48
19.44
13.88
8.00
1.47
-5.59
-12.73
-19.25
-24.51
-28.15
-30.35
-31.80
-33.45
-36.22
-40.71
-47.18
-55.84
-66.92
-80.68
-96.97
-114.96
-132.98
-148.83
-160.51
-166.88
-168.10
-165.46
-160.79
-155.85
-151.81
-149.11
-147.51
-146.41
-144.91
-141.94
-136.30
-126.90
-113.05
-94.80
-73.01
-49.09
-24.40
0.53
26.19
53.69
83.68
115.38
146.19
172.34
190.31
198.30
196.96
188.86
177.20
164.40
151.31
137.60
122.65
106.72
91.34
78.98
72.21
72.74
80.91
95.67
115.05
136.83
159.06
180.42
200.10
217.66
232.70
244.82
253.57
258.72
260.36
258.92
255.06
249.41
242.53
234.68
225.89
215.91
204.47
191.47
177.20
162.34
147.68
133.74
120.27
106.15
89.69
69.20
43.53
12.51
-23.13
-62.24
-103.60
-146.27
-189.51
-232.69
-275.36
-317.26
-358.15
-397.44
-433.55
-463.60
-484.12
-492.24
-487.29
-471.43
-449.05
-424.95
-402.41
-382.10
-362.28
-340.29
-314.27
-284.08
-251.41
-218.86
-189.06
-163.97
-144.66
-131.19
-122.62
-117.10
-112.19
-105.75
-96.94
-86.81
-77.75
-72.08
-70.35
-70.66
-69.48
-63.51
-51.53
-35.00
-17.22
-1.62
9.76
16.60
19.83
20.73
20.29
19.10
17.46
15.44
12.78
9.26
5.36
2.91
4.80
13.73
29.84
49.37
65.19
69.76
59.10
35.58
7.76
-13.15
-18.09
-4.07
25.14
61.45
96.41
124.49
144.03
156.15
162.67
164.84
163.27
158.61
152.08
144.97
137.55
127.99
112.48
86.68
47.90
-2.82
-60.08
-115.04
-157.98
-181.25
-181.85
-162.09
-128.47
-89.05
-50.45
-16.07
13.94
41.16
66.76
90.14
108.98
120.38
122.22
113.73
95.29
68.17
34.52
-1.93
-35.48
-58.97
-65.94
-53.14
-22.34
20.01
65.04
104.48
133.16
149.48
154.42
149.85
137.47
118.65
95.00
68.82
43.05
20.90
5.14
-2.43
-1.57
6.11
17.25
27.47
32.49
29.50
17.89
-0.81
-23.75
-47.90
-70.69
-90.14
-104.61
-112.73
-113.65
-107.65
-96.38
-82.57
-69.21
-58.54
-51.57
-48.17
-47.58
-48.81
-51.00
-53.48
-55.76
-57.60
-59.12
-60.66
-62.65
-65.26
-68.24
-70.97
-72.75
-73.14
-72.15
-70.21
-67.73
-64.78
-60.74
-54.55
-45.12
-32.25
-16.83
-0.71
14.19
26.94
38.12
49.56
63.24
80.12
99.47
119.18
136.79
150.53
159.88
165.30
167.58
167.20
164.02
157.58
147.35
133.24
115.65
95.53
74.19
53.14
33.76
17.06
3.61
-6.56
-13.80
-18.81
-22.37
-25.41
-28.58
-32.12
-35.41
-37.05
-35.22
-28.50
-16.67
-1.18
15.17
29.00
37.32
38.36
31.70
18.03
-1.30
-24.71
-50.42
-76.57
-101.26
-122.79
-139.98
-152.46
-160.67
-165.52
-167.91
-168.23
-166.20
-161.08
-152.25
-139.81
-124.89
-109.60
-96.41
-87.39
-83.39
-83.68
-86.11
-87.62
-85.14
-76.44
-60.69
-38.71
-12.73
14.27
39.31
60.11
75.49
85.36
90.43
91.80
90.63
87.86
84.24
80.24
75.91
70.98
64.84
56.96
47.08
35.46
22.75
9.72
-3.01
-15.03
-25.97
-35.26
-42.05
-45.37
-44.49
-39.17
-29.83
-17.33
-2.80
12.59
27.64
41.19
52.22
60.06
64.56
66.07
65.21
62.64
58.76
53.70
47.49
40.31
32.54
24.82
17.71
11.56
6.33
1.70
-2.89
-8.01
-14.15
-21.54
-30.05
-39.09
-47.58
-54.09
-57.12
-55.40
-48.31
-36.01
-19.31
0.51
22.11
44.27
65.91
85.95
103.29
116.84
125.83
130.17
130.57
128.35
124.88
121.04
116.79
111.30
103.36
92.11
77.52
60.54
42.81
26.00
11.25
-1.27
-12.44
-23.80
-36.90
-52.57
-70.36
-88.31
-103.38
-112.03
-111.11
-98.72
-74.99
-42.44
-5.93
28.44
54.92
69.87
72.87
66.59
55.49
44.04
35.24
30.16
28.54
29.73
33.43
39.73
48.53
59.07
69.78
78.78
84.46
85.91
83.00
76.05
65.65
52.44
37.12
20.68
4.44
-10.11
-21.67
-29.49
-33.76
-35.55
-36.51
-38.29
-42.05
-47.94
-54.93
-61.03
-63.78
-61.00
-51.49
-35.33
-13.67
11.63
38.67
65.90
92.18
116.58
137.84
154.11
163.14
163.12
153.89
137.99
120.55
108.01
105.66
115.15
133.48
153.79
168.06
170.36
158.90
136.19
107.36
77.70
50.86
28.47
10.95
-1.36
-7.54
-6.49
2.12
16.90
34.75
51.64
64.08
70.35
70.90
67.86
63.69
59.98
56.81
53.01
47.08
38.14
26.49
13.50
0.88
-10.03
-18.73
-25.55
-31.33
-36.82
-42.37
-47.80
-52.72
-56.67
-59.56
-61.67
-63.62
-66.18
-69.99
-75.36
-82.03
-89.12
-95.21
-98.58
-97.74
-91.84
-81.06
-66.56
-50.20
-33.91
-19.27
-7.17
2.11
8.61
12.50
13.92
13.04
10.26
6.25
1.86
-2.11
-5.18
-7.31
-8.85
-10.34
-12.27
-14.80
-17.86
-21.15
-24.46
-27.73
-31.13
-34.97
-39.54
-45.01
-51.25
-57.75
-63.65
-67.72
-68.72
-65.70
-58.38
-47.33
-33.83
-19.58
-6.13
5.46
14.72
21.60
26.17
28.48
28.51
26.42
22.67
18.01
13.29
9.21
6.05
3.60
1.42
-0.95
-3.71
-6.75
-9.75
-12.33
-14.35
-15.84
-17.13
-18.68
-21.05
-24.73
-29.96
-36.63
-44.02
-50.87
-55.51
-56.34
-52.34
-43.52
-30.90
-16.36
-1.88
10.90
21.08
28.42
33.15
35.56
35.79
33.93
30.17
24.99
19.12
13.41
8.56
4.89
2.26
0.26
-1.69
-3.95
-6.58
-9.30
-11.74
-13.59
-14.84
-15.83
-17.10
-19.18
-22.42
-26.95
-32.60
-39.05
-45.73
-51.76
-55.95
-56.97
-53.66
-45.56
-33.26
-18.29
-2.74
11.38
22.74
30.82
35.75
37.91
37.65
35.14
30.65
24.64
17.91
11.40
5.92
1.89
-0.83
-2.75
-4.51
-6.65
-9.41
-12.71
-16.25
-19.70
-22.78
-25.44
-27.76
-30.00
-32.44
-35.30
-38.72
-42.68
-46.98
-51.07
-54.08
-54.88
-52.41
-46.03
-35.83
-22.75
-8.35
5.60
17.61
26.75
32.73
35.66
35.80
33.55
29.39
24.01
18.32
13.20
9.32
6.84
5.51
4.71
3.79
2.28
0.02
-2.88
-6.13
-9.40
-12.41
-15.02
-17.28
-19.42
-21.86
-25.06
-29.36
-34.78
-40.80
-46.37
-50.02
-50.20
-45.90
-36.95
-24.26
-9.55
5.16
18.16
28.43
35.69
40.10
41.93
41.37
38.56
33.83
27.82
21.53
15.94
11.71
8.94
7.20
5.84
4.30
2.34
0.01
-2.44
-4.83
-7.13
-9.47
-12.06
-15.05
-18.49
-22.39
-26.69
-31.40
-36.48
-41.61
-46.11
-48.90
-48.69
-44.53
-36.18
-24.40
-10.79
2.69
14.38
23.30
29.25
32.57
33.70
32.99
30.65
26.92
22.20
17.19
12.63
9.12
6.87
5.73
5.16
4.60
3.60
1.95
-0.26
-2.82
-5.48
-8.09
-10.66
-13.24
-15.95
-18.88
-22.10
-25.69
-29.69
-34.00
-38.24
-41.66
-43.21
-41.83
-36.83
-28.24
-16.87
-4.13
8.37
19.22
27.51
32.94
35.62
35.95
34.34
31.22
27.05
22.32
17.62
13.44
10.10
7.59
5.64
3.80
1.70
-0.77
-3.45
-5.98
-8.01
-9.38
-10.25
-11.03
-12.19
-14.13
-17.11
-21.20
-26.27
-32.01
-37.83
-42.84
-45.90
-45.86
-41.92
-33.96
-22.70
-9.59
3.62
15.27
24.28
30.23
33.23
33.75
32.30
29.33
25.34
20.85
16.46
12.77
10.21
8.84
8.30
7.95
7.11
5.37
2.67
-0.66
-4.07
-7.17
-9.78
-12.04
-14.31
-16.97
-20.35
-24.63
-29.85
-35.80
-41.94
-47.26
-50.50
-50.31
-45.85
-37.05
-24.80
-10.72
3.40
15.96
26.02
33.18
37.49
39.14
38.42
35.72
31.61
26.82
22.15
18.29
15.58
13.99
13.03
12.07
10.44
7.78
4.15
-0.03
-4.14
-7.64
-10.30
-12.36
-14.35
-16.92
-20.63
-25.74
-32.08
-39.12
-45.88
-51.09
-53.39
-51.57
-45.09
-34.31
-20.53
-5.63
8.49
20.40
29.42
35.49
38.93
40.04
39.00
36.00
31.34
25.65
19.76
14.51
10.41
7.53
5.40
3.32
0.55
-3.42
-8.62
-14.69
-21.00
-27.00
-32.38
-37.20
-41.84
-46.85
-52.81
-60.04
-68.54
-77.78
-86.76
-94.07
-98.26
-98.30
-93.93
-85.90
-75.69
-65.07
-55.62
-48.45
-44.17
-43.20
-45.97
-52.97
-64.41
-79.95
-98.47
-118.34
-137.81
-155.61
-171.40
-185.76
-200.01
-215.89
-235.20
-259.34
-288.60
-321.52
-354.52
-382.49
-400.16
-403.99
-393.47
-371.19
-341.80
-310.09
-279.42
-251.24
-225.57
-202.05
-180.64
-161.76
-145.71
-132.26
-120.37
-108.80
-96.59
-83.56
-70.34
-57.97
-47.33
-38.69
-31.63
-25.22
-18.47
-10.83
-2.30
6.55
14.98
22.42
28.72
34.21
39.49
45.04
51.07
57.37
63.50
69.03
73.83
78.17
82.59
87.63
93.63
100.49
107.82
115.09
122.00
128.65
135.55
143.38
152.66
163.50
175.55
188.18
200.74
212.89
224.73
236.71
249.52
264.07
281.28
301.86
325.70
351.34
375.78
395.02
405.17
403.88
391.16
369.34
342.06
312.99
284.77
258.81
235.61
215.30
197.97
183.52
171.38
160.48
149.50
137.34
123.61
108.82
94.31
81.84
73.16
69.40
70.73
76.23
84.13
92.38
99.26
103.76
105.62
105.04
102.20
97.02
89.18
78.37
64.65
48.56
31.07
13.32
-3.67
-19.12
-32.58
-43.78
-52.63
-59.19
-63.72
-66.64
-68.53
-69.93
-71.28
-72.73
-74.23
-75.60
-76.79
-77.95
-79.55
-82.24
-86.60
-92.75
-100.07
-107.04
-111.44
-110.93
-103.69
-89.14
-68.19
-43.06
-16.64
8.26
29.57
46.19
57.91
65.12
68.48
68.73
66.67
63.07
58.69
54.14
49.85
46.00
42.59
39.49
36.51
33.51
30.35
26.93
23.17
18.99
14.36
9.29
3.85
-1.79
-7.41
-12.83
-17.99
-23.13
-28.72
-35.37
-43.53
-53.04
-62.80
-70.90
-75.01
-73.21
-64.67
-49.99
-31.03
-10.25
9.95
27.79
42.24
52.91
59.78
63.01
62.92
60.03
55.08
48.98
42.69
37.02
32.46
29.10
26.72
24.87
23.05
20.81
17.88
14.10
9.44
4.02
-1.92
-8.08
-14.13
-19.83
-25.18
-30.44
-36.08
-42.71
-50.68
-59.80
-69.02
-76.53
-80.06
-77.67
-68.37
-52.63
-32.31
-10.06
11.40
29.90
44.24
54.03
59.47
60.99
59.10
54.39
47.62
39.71
31.74
24.68
19.21
15.44
12.97
11.02
8.76
5.63
1.55
-3.18
-8.09
-12.85
-17.38
-21.88
-26.64
-31.91
-37.88
-44.73
-52.64
-61.69
-71.46
-80.76
-87.58
-89.61
-84.97
-73.01
-54.62
-32.08
-8.20
14.47
34.23
50.24
62.17
69.90
73.28
72.34
67.53
59.87
50.86
42.09
34.80
29.49
25.95
23.40
20.89
17.74
13.70
8.93
3.85
-1.21
-6.15
-11.12
-16.40
-22.27
-29.00
-36.79
-45.84
-56.09
-66.97
-77.12
-84.50
-86.81
-82.27
-70.29
-51.75
-28.86
-4.43
18.86
38.98
54.81
66.00
72.72
75.38
74.54
70.83
65.07
58.10
50.84
44.09
38.45
34.15
31.01
28.53
26.07
23.05
19.18
14.44
9.05
3.31
-2.52
-8.32
-14.08
-19.92
-26.06
-32.83
-40.65
-49.87
-60.48
-71.77
-82.12
-89.16
-90.30
-83.70
-68.91
-47.21
-21.34
5.35
29.81
50.02
65.16
75.34
81.15
83.27
82.30
78.85
73.57
67.25
60.63
54.24
48.38
43.08
38.29
33.95
30.03
26.47
23.09
19.61
15.67
11.02
5.58
-0.45
-6.76
-13.03
-19.06
-24.90
-30.89
-37.62
-45.66
-55.29
-66.01
-76.31
-83.81
-85.81
-80.24
-66.44
-45.58
-20.44
5.52
29.06
48.05
61.68
70.11
74.09
74.40
71.71
66.75
60.33
53.41
46.93
41.52
37.34
34.14
31.45
28.90
26.37
23.88
21.49
19.05
16.25
12.66
7.98
2.18
-4.51
-11.61
-18.67
-25.40
-31.90
-38.52
-45.85
-54.41
-64.33
-74.97
-84.84
-91.74
-93.36
-87.93
-75.00
-55.59
-31.98
-7.13
16.24
36.15
51.53
62.18
68.33
70.46
69.13
65.05
59.03
52.00
44.90
38.50
33.28
29.33
26.39
23.98
21.52
18.52
14.68
9.94
4.46
-1.47
-7.54
-13.47
-19.15
-24.56
-29.88
-35.40
-41.54
-48.75
-57.26
-66.90
-76.73
-85.03
-89.51
-87.99
-79.14
-63.08
-41.54
-17.41
6.17
26.61
42.44
53.28
59.50
61.70
60.45
56.30
49.91
42.15
34.16
26.96
21.32
17.50
15.19
13.69
12.14
9.82
6.41
2.02
-2.92
-7.90
-12.57
-16.90
-21.13
-25.60
-30.60
-36.29
-42.78
-50.22
-58.67
-67.80
-76.61
-83.28
-85.59
-81.58
-70.39
-52.71
-30.68
-7.24
14.75
33.26
47.29
56.75
62.01
63.62
62.05
57.84
51.68
44.48
37.29
31.05
26.36
23.27
21.37
19.94
18.26
15.80
12.35
8.00
3.04
-2.22
-7.56
-12.80
-17.96
-23.11
-28.40
-34.16
-40.77
-48.65
-57.88
-67.85
-77.10
-83.41
-84.37
-78.19
-64.40
-44.18
-20.06
4.86
27.73
46.66
60.74
69.91
74.53
75.16
72.44
67.22
60.45
53.16
46.18
40.06
34.97
30.77
27.22
24.07
21.17
18.36
15.44
12.17
8.29
3.61
-1.90
-7.99
-14.31
-20.44
-26.05
-31.09
-35.81
-40.77
-46.65
-53.98
-62.73
-71.96
-79.84
-83.97
-82.06
-72.72
-56.03
-33.65
-8.41
16.47
38.21
55.08
66.49
72.80
74.83
73.54
69.71
64.07
57.31
50.14
43.25
37.10
31.87
27.45
23.61
20.19
17.17
14.61
12.46
10.41
7.96
4.55
-0.24
-6.42
-13.58
-21.10
-28.31
-34.81
-40.54
-45.82
-51.28
-57.61
-65.25
-73.96
-82.63
-89.20
-91.21
-86.47
-73.96
-54.37
-30.01
-4.14
20.01
40.07
54.96
64.65
69.66
70.68
68.34
63.29
56.34
48.47
40.66
33.68
27.90
23.29
19.52
16.20
13.02
9.79
6.42
2.79
-1.21
-5.71
-10.75
-16.23
-21.92
-27.51
-32.75
-37.53
-42.02
-46.68
-52.14
-58.91
-66.99
-75.49
-82.59
-85.89
-83.12
-73.02
-55.91
-33.74
-9.47
13.74
33.42
48.26
58.07
63.34
64.77
62.98
58.50
51.90
44.04
35.93
28.63
22.86
18.77
16.03
13.87
11.54
8.54
4.70
0.17
-4.76
-9.91
-15.19
-20.62
-26.14
-31.68
-37.14
-42.58
-48.27
-54.72
-62.30
-70.88
-79.40
-85.87
-87.87
-83.30
-71.31
-52.70
-29.77
-5.63
16.75
35.24
48.89
57.71
62.29
63.35
61.58
57.59
51.99
45.46
38.73
32.44
27.09
22.93
19.94
17.88
16.27
14.55
12.18
8.81
4.36
-0.97
-6.78
-12.68
-18.41
-23.86
-29.13
-34.47
-40.31
-47.11
-55.33
-64.95
-75.12
-84.06
-89.24
-88.18
-79.34
-62.89
-40.73
-15.98
8.08
28.89
45.07
56.36
63.13
66.05
65.72
62.79
57.97
52.10
45.99
40.22
35.16
30.84
27.17
24.02
21.29
18.91
16.69
14.35
11.43
7.57
2.59
-3.39
-9.95
-16.56
-22.78
-28.43
-33.64
-38.85
-44.69
-51.69
-60.04
-69.20
-77.76
-83.55
-84.18
-77.86
-64.11
-44.12
-20.45
3.82
25.98
44.33
58.25
67.83
73.43
75.33
73.91
69.76
63.84
57.37
51.49
46.83
43.38
40.55
37.62
34.12
30.08
25.89
22.06
18.80
15.87
12.68
8.51
2.93
-4.00
-11.75
-19.48
-26.45
-32.23
-36.88
-40.89
-45.02
-50.13
-56.82
-65.13
-74.25
-82.45
-87.39
-86.63
-78.58
-63.08
-41.71
-17.25
7.01
28.34
45.06
56.67
63.56
66.46
66.11
63.20
58.46
52.71
46.87
41.72
37.65
34.62
32.24
29.99
27.52
24.75
21.86
19.05
16.34
13.47
9.94
5.24
-0.78
-7.86
-15.27
-22.20
-28.08
-32.88
-37.12
-41.70
-47.53
-55.16
-64.51
-74.63
-83.70
-89.38
-89.27
-81.74
-66.61
-45.40
-20.94
3.45
24.95
41.87
53.78
61.07
64.44
64.52
61.77
56.71
50.04
42.65
35.45
29.20
24.28
20.70
18.17
16.28
14.63
12.78
10.38
7.17
3.01
-2.10
-7.99
-14.39
-20.92
-27.28
-33.24
-38.77
-44.10
-49.77
-56.36
-64.28
-73.20
-81.73
-87.51
-87.88
-80.81
-65.87
-44.62
-20.14
4.07
25.14
41.59
53.24
60.71
64.70
65.66
63.81
59.47
53.26
46.11
39.01
32.74
27.63
23.66
20.56
17.98
15.63
13.23
10.60
7.53
3.90
-0.29
-5.00
-10.11
-15.44
-20.88
-26.47
-32.34
-38.84
-46.43
-55.30
-65.13
-74.72
-82.06
-84.72
-80.67
-68.96
-50.33
-27.04
-2.22
20.99
40.31
54.57
63.67
68.11
68.62
65.96
60.85
54.13
46.69
39.42
33.02
27.96
24.35
21.97
20.39
19.03
17.29
14.70
11.04
6.35
0.93
-4.83
-10.55
-16.00
-21.13
-26.01
-30.93
-36.31
-42.66
-50.42
-59.61
-69.53
-78.57
-84.38
-84.56
-77.44
-62.81
-42.17
-18.31
5.55
26.70
43.51
55.57
63.25
67.27
68.29
66.82
63.35
58.46
52.78
47.00
41.61
36.92
33.02
29.83
27.20
24.88
22.59
19.99
16.81
12.88
8.18
2.85
-2.92
-8.93
-15.02
-21.15
-27.39
-33.97
-41.31
-49.81
-59.52
-69.73
-78.76
-84.12
-83.33
-74.74
-58.37
-36.08
-11.01
13.38
34.32
50.36
61.32
67.79
70.60
70.42
67.65
62.67
55.99
48.37
40.67
33.72
28.07
23.86
20.82
18.40
15.95
12.90
8.96
4.19
-1.09
-6.45
-11.56
-16.34
-20.98
-25.80
-31.13
-37.22
-44.22
-52.21
-61.05
-70.12
-78.15
-83.25
-83.32
-76.85
-63.57
-44.77
-22.93
-1.01
18.55
34.33
45.91
53.57
57.69
58.57
56.42
51.68
45.18
38.13
31.74
26.91
23.85
22.11
20.80
18.98
15.95
11.54
6.03
-0.01
-5.96
-11.37
-16.10
-20.36
-24.58
-29.34
-35.20
-42.51
-51.38
-61.36
-71.34
-79.50
-83.64
-81.79
-72.87
-57.25
-36.76
-14.18
7.63
26.52
41.45
52.34
59.62
63.74
64.96
63.36
59.18
53.05
45.92
38.85
32.76
28.12
24.88
22.62
20.74
18.61
15.77
11.98
7.20
1.57
-4.59
-10.95
-17.15
-23.00
-28.57
-34.24
-40.58
-48.15
-57.08
-66.74
-75.62
-81.47
-81.96
-75.43
-61.62
-41.79
-18.45
5.49
27.41
45.62
59.44
68.88
74.34
76.33
75.37
72.08
67.12
61.28
55.17
49.26
43.76
38.73
34.15
29.98
26.21
22.74
19.42
16.01
12.25
7.96
3.03
-2.49
-8.44
-14.59
-20.74
-26.76
-32.79
-39.20
-46.52
-55.02
-64.29
-72.98
-78.83
-79.40
-72.90
-59.02
-39.12
-15.89
7.59
28.70
45.80
58.39
66.64
71.03
72.05
70.28
66.40
61.27
55.87
50.97
46.93
43.60
40.52
37.24
33.58
29.79
26.30
23.44
21.09
18.67
15.37
10.52
4.05
-3.56
-11.45
-18.74
-24.94
-30.07
-34.65
-39.48
-45.39
-52.89
-61.89
-71.35
-79.31
-83.27
-80.89
-70.89
-53.65
-31.23
-6.74
16.56
36.26
51.17
61.28
67.21
69.70
69.36
66.59
61.87
55.86
49.40
43.29
38.05
33.84
30.43
27.45
24.58
21.66
18.67
15.61
12.34
8.58
4.06
-1.36
-7.51
-14.00
-20.30
-26.07
-31.28
-36.42
-42.28
-49.66
-58.78
-68.93
-78.26
-84.22
-84.33
-77.12
-62.71
-42.89
-20.56
1.25
20.16
34.91
45.22
51.48
54.25
54.00
51.14
46.10
39.58
32.44
25.65
20.04
16.06
13.63
12.20
10.98
9.20
6.38
2.52
-2.03
-6.75
-11.17
-15.10
-18.67
-22.28
-26.38
-31.44
-37.76
-45.45
-54.30
-63.53
-71.70
-76.77
-76.57
-69.60
-55.69
-36.32
-14.27
7.29
25.79
39.91
49.61
55.61
58.74
59.38
57.62
53.43
47.10
39.39
31.36
24.12
18.37
14.36
11.73
9.77
7.72
4.95
1.31
-2.98
-7.47
-11.71
-15.49
-18.94
-22.43
-26.40
-31.25
-37.29
-44.69
-53.34
-62.63
-71.18
-77.01
-77.89
-72.20
-59.64
-41.48
-20.29
0.94
19.66
34.44
44.99
51.78
55.60
56.96
56.17
53.39
48.87
43.15
36.99
31.26
26.65
23.53
21.73
20.68
19.57
17.68
14.61
10.45
5.62
0.63
-4.15
-8.60
-12.86
-17.24
-22.09
-27.81
-34.80
-43.28
-52.98
-62.79
-70.74
-74.32
-71.35
-60.87
-43.65
-22.16
0.30
20.63
36.79
48.10
54.95
58.26
58.85
57.25
53.76
48.75
42.69
36.32
30.38
25.48
21.92
19.56
17.98
16.56
14.74
12.12
8.61
4.37
-0.31
-5.12
-9.88
-14.54
-19.11
-23.66
-28.36
-33.44
-39.29
-46.30
-54.53
-63.38
-71.39
-76.29
-75.71
-68.00
-53.01
-32.40
-9.20
13.20
32.05
45.99
55.05
60.22
62.64
63.04
61.63
58.32
53.19
46.76
40.01
34.01
29.54
26.86
25.56
24.84
23.79
21.75
18.46
14.09
9.06
3.83
-1.29
-6.14
-10.75
-15.23
-19.81
-24.83
-30.80
-38.23
-47.17
-56.84
-65.38
-70.11
-68.49
-59.06
-42.28
-20.48
2.87
24.35
41.59
53.71
61.04
64.42
64.60
61.98
56.72
49.18
40.06
30.57
22.00
15.38
11.07
8.70
7.32
5.80
3.33
-0.36
-5.00
-9.91
-14.51
-18.47
-21.86
-25.09
-28.71
-33.26
-39.23
-46.94
-56.37
-66.87
-76.84
-83.87
-85.27
-78.95
-64.39
-43.13
-18.34
6.11
26.95
42.47
52.61
58.40
61.11
61.46
59.57
55.29
48.76
40.72
32.46
25.33
20.18
17.12
15.53
14.38
12.77
10.21
6.77
2.88
-0.96
-4.41
-7.40
-10.17
-13.07
-16.57
-21.12
-27.23
-35.33
-45.61
-57.54
-69.65
-79.52
-84.29
-81.68
-70.90
-53.17
-31.37
-9.15
10.33
25.23
35.25
41.15
44.02
44.68
43.46
40.41
35.62
29.46
22.58
15.72
9.52
4.23
-0.21
-4.14
-7.99
-12.08
-16.51
-21.19
-25.85
-30.26
-34.31
-38.09
-41.87
-46.01
-50.87
-56.72
-63.74
-71.99
-81.28
-90.95
-99.70
-105.68
-106.85
-101.59
-89.29
-70.64
-47.49
-22.35
2.32
24.64
43.48
58.36
69.25
76.36
80.06
80.86
79.35
76.11
71.61
66.22
60.27
54.09
48.07
42.51
37.62
33.32
29.33
25.24
20.68
15.39
9.32
2.60
-4.51
-11.71
-18.75
-25.54
-32.26
-39.34
-47.39
-56.88
-67.74
-78.96
-88.57
-94.03
-92.99
-84.11
-67.65
-45.45
-20.34
4.71
27.33
46.15
60.76
71.38
78.54
82.81
84.70
84.65
83.07
80.30
76.69
72.55
68.14
63.65
59.16
54.69
50.24
45.80
41.32
36.70
31.67
25.93
19.30
11.86
4.01
-3.68
-10.67
-16.80
-22.43
-28.33
-35.44
-44.45
-55.38
-67.30
-78.27
-85.74
-87.17
-80.86
-66.58
-45.79
-21.28
3.66
26.13
44.30
57.59
66.43
71.69
74.26
74.77
73.59
70.96
67.12
62.39
57.08
51.46
45.69
39.83
33.98
28.29
22.97
18.18
13.92
9.94
5.84
1.25
-4.03
-9.90
-16.07
-22.17
-28.02
-33.78
-39.94
-47.16
-55.83
-65.78
-75.86
-84.10
-88.06
-85.60
-75.75
-59.07
-37.68
-14.52
7.48
26.23
40.81
51.24
58.05
61.80
62.83
61.29
57.45
51.81
45.16
38.40
32.29
27.23
23.14
19.61
16.07
12.06
7.36
2.03
-3.64
-9.39
-15.03
-20.52
-25.96
-31.48
-37.31
-43.73
-51.04
-59.45
-68.80
-78.25
-86.19
-90.51
-89.18
-80.94
-65.93
-45.66
-22.69
0.20
20.73
37.63
50.58
59.87
65.88
68.81
68.67
65.55
59.88
52.56
44.75
37.53
31.50
26.65
22.40
18.02
12.99
7.27
1.17
-4.84
-10.42
-15.54
-20.46
-25.61
-31.38
-38.08
-45.86
-54.76
-64.52
-74.32
-82.66
-87.45
-86.60
-78.74
-63.85
-43.47
-20.22
3.02
23.92
41.20
54.55
64.27
70.75
74.22
74.78
72.59
68.03
61.81
54.83
47.95
41.82
36.72
32.57
29.01
25.57
21.83
17.56
12.73
7.52
2.19
-3.04
-8.11
-13.12
-18.37
-24.24
-31.12
-39.27
-48.67
-58.82
-68.57
-76.16
-79.54
-76.93
-67.45
-51.54
-30.93
-8.17
14.14
33.98
50.16
62.33
70.64
75.38
76.91
75.58
71.93
66.60
60.37
53.90
47.67
41.95
36.82
32.26
28.22
24.55
21.02
17.26
12.94
7.89
2.18
-3.87
-9.87
-15.52
-20.75
-25.71
-30.69
-36.06
-42.22
-49.51
-57.95
-66.94
-75.01
-80.00
-79.60
-72.16
-57.45
-36.95
-13.36
10.16
30.95
47.44
59.21
66.61
70.43
71.38
70.15
67.26
63.24
58.61
53.77
49.05
44.58
40.42
36.58
33.06
29.84
26.82
23.74
20.23
15.91
10.54
4.18
-2.80
-9.84
-16.38
-22.12
-27.09
-31.67
-36.48
-42.20
-49.38
-58.15
-67.93
-77.22
-83.81
-85.22
-79.58
-66.38
-46.87
-23.75
-0.32
20.57
37.24
49.28
57.26
61.98
64.12
63.97
61.68
57.48
51.83
45.45
39.10
33.42
28.76
25.20
22.50
20.30
18.20
15.86
13.01
9.48
5.15
-0.03
-5.95
-12.40
-18.99
-25.32
-31.14
-36.60
-42.20
-48.72
-56.65
-65.70
-74.51
-80.78
-81.94
-76.13
-63.01
-44.00
-21.92
-0.00
19.08
33.85
44.07
50.35
53.50
54.16
52.64
49.06
43.69
37.08
30.06
23.53
18.21
14.33
11.70
9.79
7.95
5.66
2.67
-0.99
-5.14
-9.58
-14.20
-18.94
-23.85
-28.96
-34.27
-39.91
-46.09
-53.15
-61.23
-69.92
-78.02
-83.52
-84.16
-78.21
-65.20
-46.25
-23.77
-0.71
20.34
37.74
50.90
59.95
65.34
67.51
66.84
63.83
59.16
53.64
48.02
42.85
38.24
34.06
30.05
26.11
22.24
18.53
14.93
11.18
6.85
1.48
-5.05
-12.49
-20.20
-27.44
-33.64
-38.70
-43.02
-47.39
-52.75
-59.74
-68.44
-78.02
-86.77
-92.32
-92.35
-85.28
-70.96
-50.80
-27.40
-3.73
17.71
35.45
49.10
58.93
65.41
68.87
69.54
67.73
64.01
59.25
54.36
49.95
46.18
42.80
39.38
35.70
31.81
28.05
24.78
22.03
19.47
16.42
12.16
6.26
-1.20
-9.64
-18.14
-25.80
-32.06
-36.88
-40.79
-44.68
-49.64
-56.50
-65.47
-75.82
-85.77
-92.73
-94.04
-87.84
-73.85
-53.51
-29.60
-5.29
16.84
35.33
49.81
60.54
67.86
71.92
72.78
70.77
66.65
61.51
56.41
52.00
48.34
44.96
41.33
37.17
32.69
28.46
25.09
22.85
21.45
20.15
18.00
14.24
8.62
1.46
-6.49
-14.39
-21.51
-27.50
-32.45
-36.81
-41.29
-46.66
-53.55
-62.03
-71.39
-79.99
-85.52
-85.60
-78.65
-64.56
-44.81
-22.08
0.69
21.11
37.83
50.43
59.10
64.19
66.00
64.87
61.28
56.02
49.98
44.00
38.55
33.78
29.56
25.67
21.97
18.47
15.24
12.27
9.45
6.52
3.10
-1.09
-6.14
-11.87
-17.87
-23.67
-28.91
-33.49
-37.69
-42.11
-47.57
-54.66
-63.41
-72.90
-81.24
-85.97
-84.76
-76.35
-61.07
-40.90
-18.83
2.11
19.74
33.15
42.50
48.48
51.70
52.44
50.75
46.76
40.94
34.16
27.44
21.64
17.17
13.96
11.55
9.34
6.80
3.57
-0.47
-5.23
-10.50
-16.03
-21.59
-27.01
-32.24
-37.36
-42.60
-48.34
-55.08
-63.20
-72.58
-82.36
-90.75
-95.39
-93.98
-85.23
-69.39
-48.39
-25.25
-3.04
15.94
30.76
41.54
48.95
53.57
55.58
54.89
51.55
46.10
39.55
33.13
27.84
24.06
21.49
19.42
17.00
13.69
9.36
4.21
-1.34
-6.97
-12.49
-17.94
-23.50
-29.43
-36.02
-43.57
-52.38
-62.63
-74.02
-85.58
-95.52
-101.51
-101.35
-93.76
-78.86
-58.29
-34.65
-10.75
11.18
29.82
44.68
55.76
63.20
67.19
67.98
66.07
62.17
57.18
51.92
46.90
42.32
38.04
33.93
29.87
25.95
22.24
18.74
15.22
11.17
6.10
-0.29
-7.89
-16.19
-24.49
-32.23
-39.30
-46.12
-53.50
-62.32
-73.13
-85.65
-98.57
-109.58
-115.92
-115.10
-105.85
-88.51
-65.05
-38.39
-11.55
13.19
34.58
52.27
66.37
76.97
84.06
87.66
88.01
85.80
82.09
77.93
74.13
70.96
68.14
65.13
61.46
57.01
52.15
47.47
43.48
40.25
37.31
33.85
28.99
22.22
13.55
3.59
-6.76
-16.61
-25.36
-32.91
-39.68
-46.39
-53.92
-63.11
-74.44
-87.74
-101.88
-114.62
-122.99
-124.10
-116.02
-98.68
-73.89
-44.79
-14.84
13.19
37.71
58.23
74.76
87.41
96.09
100.75
101.56
99.21
94.80
89.62
84.71
80.64
77.43
74.68
71.86
68.57
64.72
60.47
56.18
52.10
48.29
44.61
40.75
36.30
30.84
24.11
16.08
7.03
-2.45
-11.65
-19.97
-27.18
-33.51
-39.56
-46.16
-54.14
-64.07
-76.00
-89.19
-101.95
-111.75
-115.74
-111.63
-98.61
-77.80
-51.94
-24.46
1.57
24.29
43.11
58.29
70.30
79.22
84.86
87.04
85.99
82.51
77.78
72.93
68.70
65.19
62.00
58.55
54.42
49.60
44.51
39.71
35.58
32.09
28.65
24.41
18.61
10.91
1.57
-8.62
-18.71
-27.88
-35.76
-42.49
-48.52
-54.57
-61.37
-69.62
-79.71
-91.48
-103.91
-114.97
-121.97
-122.22
-114.04
-97.37
-73.99
-46.97
-19.68
5.28
26.52
43.82
57.54
67.99
75.17
78.91
79.26
76.81
72.72
68.28
64.48
61.59
59.25
56.76
53.57
49.57
45.10
40.67
36.64
32.97
29.19
24.64
18.71
11.09
1.96
-8.09
-18.21
-27.60
-35.75
-42.65
-48.77
-54.93
-62.12
-71.16
-82.37
-95.22
-108.14
-118.67
-123.94
-121.55
-110.37
-90.99
-65.64
-37.41
-9.39
16.07
37.77
55.38
69.10
79.20
85.86
89.21
89.54
87.46
83.83
79.66
75.76
72.54
69.92
67.47
64.64
61.10
56.81
52.08
47.30
42.69
38.20
33.44
27.92
21.24
13.24
4.15
-5.54
-15.19
-24.25
-32.41
-39.69
-46.42
-53.17
-60.65
-69.57
-80.43
-93.17
-106.80
-119.35
-128.04
-130.03
-123.35
-107.57
-84.12
-55.77
-25.81
2.86
28.27
49.49
66.29
78.80
87.31
92.17
93.86
93.10
90.71
87.47
83.99
80.59
77.36
74.25
71.19
68.13
65.04
61.85
58.40
54.46
49.83
44.38
38.21
31.51
24.55
17.49
10.30
2.85
-4.95
-13.05
-21.17
-28.93
-36.03
-42.40
-48.33
-54.41
-61.34
-69.71
-79.80
-91.24
-102.86
-112.59
-117.79
-115.91
-105.37
-86.31
-60.68
-31.77
-3.12
22.53
43.78
60.50
73.18
82.34
88.17
90.67
89.97
86.65
81.75
76.43
71.66
67.85
64.99
62.69
60.51
58.08
55.25
52.04
48.54
44.84
40.97
36.76
31.94
26.21
19.32
11.28
2.39
-6.75
-15.47
-23.23
-29.82
-35.36
-40.29
-45.22
-50.84
-57.72
-66.23
-76.27
-87.01
-96.84
-103.52
-104.72
-98.72
-85.11
-64.96
-40.63
-14.98
9.33
30.47
47.54
60.31
68.94
73.72
75.01
73.36
69.61
64.76
59.74
55.16
51.17
47.50
43.72
39.55
34.95
30.17
25.54
21.26
17.21
12.96
7.90
1.56
-6.17
-14.91
-23.93
-32.34
-39.56
-45.46
-50.53
-55.68
-61.89
-69.88
-79.62
-90.12
-99.47
-105.18
-104.85
-96.97
-81.52
-60.06
-35.37
-10.58
11.70
29.95
43.74
53.37
59.38
62.22
62.18
59.66
55.24
49.71
43.93
38.54
33.82
29.77
26.15
22.80
19.64
16.69
13.89
11.00
7.60
3.15
-2.67
-9.85
-17.94
-26.18
-33.82
-40.46
-46.27
-51.94
-58.48
-66.76
-77.11
-88.89
-100.44
-109.28
-112.78
-108.88
-96.84
-77.54
-53.27
-26.99
-1.55
20.97
39.51
53.82
64.08
70.61
73.74
73.88
71.62
67.71
62.95
57.99
53.18
48.56
44.01
39.44
34.91
30.64
26.91
23.71
20.70
17.18
12.40
5.93
-2.17
-11.28
-20.53
-29.13
-36.68
-43.28
-49.45
-55.95
-63.62
-73.09
-84.43
-96.77
-108.09
-115.62
-116.52
-108.91
-92.70
-69.62
-42.79
-15.52
9.56
31.00
48.42
61.99
71.93
78.26
81.07
80.73
78.04
74.11
69.98
66.29
63.06
59.87
56.16
51.65
46.55
41.43
36.92
33.25
30.16
26.91
22.63
16.69
9.04
0.18
-9.07
-17.77
-25.30
-31.47
-36.68
-41.72
-47.67
-55.49
-65.70
-77.97
-90.96
-102.33
-109.23
-109.09
-100.39
-83.28
-59.62
-32.40
-4.90
20.21
41.41
58.25
71.02
80.13
85.88
88.34
87.66
84.29
79.15
73.38
68.06
63.81
60.63
58.06
55.44
52.30
48.56
44.55
40.65
37.15
33.91
30.44
26.09
20.26
12.74
3.77
-5.97
-15.63
-24.44
-31.95
-38.21
-43.67
-49.04
-55.13
-62.58
-71.71
-82.29
-93.28
-102.83
-108.50
-107.94
-99.61
-83.50
-61.15
-35.30
-9.00
15.23
35.83
52.19
64.34
72.44
76.72
77.50
75.34
71.20
66.18
61.21
56.82
52.98
49.31
45.42
41.20
36.85
32.82
29.35
26.30
23.08
18.89
13.08
5.47
-3.58
-13.27
-22.65
-31.02
-38.13
-44.29
-50.28
-57.11
-65.66
-76.31
-88.59
-100.96
-110.97
-115.85
-113.30
-102.33
-83.70
-59.72
-33.59
-8.41
13.57
31.27
44.60
53.99
59.88
62.59
62.38
59.67
55.15
49.71
44.16
39.08
34.67
30.87
27.55
24.52
21.61
18.59
15.16
10.90
5.57
-0.93
-8.43
-16.56
-24.89
-33.08
-40.94
-48.51
-56.14
-64.42
-74.01
-85.18
-97.28
-108.48
-116.00
-116.94
-109.28
-92.88
-69.56
-42.55
-15.37
9.25
29.88
46.28
58.80
67.81
73.44
75.76
75.02
71.90
67.43
62.58
58.00
53.85
49.90
45.90
41.80
37.85
34.31
31.21
28.15
24.36
19.10
11.99
3.20
-6.56
-16.42
-25.61
-33.77
-41.08
-48.15
-55.88
-65.21
-76.65
-89.82
-103.15
-113.99
-119.23
-116.36
-104.34
-84.00
-57.83
-29.09
-0.91
24.52
46.10
63.55
76.98
86.51
92.23
94.33
93.33
90.13
85.81
81.36
77.36
73.82
70.32
66.26
61.30
55.54
49.60
44.23
39.93
36.60
33.52
29.59
23.87
15.98
6.32
-4.08
-14.10
-22.95
-30.49
-37.25
-44.19
-52.29
-62.33
-74.55
-88.51
-102.84
-115.32
-123.08
-123.36
-114.31
-95.81
-69.71
-39.40
-8.76
18.94
41.83
59.61
72.94
82.69
89.42
93.21
94.00
92.02
88.01
83.01
78.12
74.00
70.72
67.89
65.00
61.71
58.05
54.32
50.84
47.77
44.96
42.02
38.44
33.77
27.75
20.36
11.87
2.71
-6.55
-15.46
-23.69
-31.14
-37.93
-44.41
-51.10
-58.63
-67.61
-78.27
-90.18
-101.94
-111.18
-115.18
-111.57
-99.35
-79.29
-53.76
-26.02
0.82
24.57
44.21
59.59
70.95
78.46
82.22
82.46
79.84
75.45
70.65
66.53
63.56
61.49
59.56
56.94
53.26
48.72
44.03
39.90
36.65
33.93
30.80
26.20
19.41
10.46
0.05
-10.64
-20.48
-28.76
-35.41
-40.91
-46.07
-51.81
-58.91
-67.80
-78.39
-89.81
-100.31
-107.52
-108.98
-102.90
-88.94
-68.40
-43.93
-18.72
4.46
23.92
39.08
50.16
57.60
61.74
62.81
61.20
57.57
52.87
48.02
43.62
39.80
36.34
32.91
29.43
26.05
23.04
20.49
18.16
15.43
11.64
6.32
-0.56
-8.58
-17.03
-25.19
-32.57
-39.11
-45.21
-51.64
-59.32
-68.92
-80.40
-92.69
-103.62
-110.27
-109.92
-101.02
-83.78
-60.28
-33.71
-7.42
16.11
35.59
50.85
62.19
69.97
74.35
75.44
73.58
69.51
64.28
58.92
54.08
49.85
45.91
41.79
37.24
32.38
27.71
23.65
20.32
17.26
13.64
8.57
1.59
-7.06
-16.53
-25.67
-33.56
-39.86
-45.01
-50.00
-56.14
-64.41
-75.19
-87.74
-100.16
-109.67
-113.26
-108.68
-95.21
-74.09
-48.12
-20.76
4.94
27.04
44.89
58.69
68.92
75.85
79.56
80.15
78.09
74.25
69.74
65.49
61.92
58.88
55.83
52.20
47.76
42.73
37.66
33.14
29.44
26.36
23.22
19.18
13.55
6.16
-2.58
-11.79
-20.47
-27.98
-34.25
-39.77
-45.47
-52.32
-61.07
-71.91
-84.32
-96.86
-107.32
-113.06
-111.64
-101.77
-83.80
-59.77
-32.80
-6.11
17.91
38.08
54.30
66.96
76.38
82.59
85.51
85.26
82.43
78.02
73.10
68.44
64.36
60.64
56.83
52.58
47.86
43.00
38.49
34.76
31.80
29.23
26.32
22.26
16.50
8.98
0.18
-9.04
-17.70
-25.18
-31.30
-36.49
-41.61
-47.58
-55.21
-64.83
-76.13
-87.98
-98.46
-105.10
-105.54
-98.14
-82.73
-60.83
-35.21
-9.11
14.74
34.70
50.34
61.96
70.06
74.97
76.78
75.67
72.13
67.07
61.60
56.64
52.62
49.38
46.37
43.02
39.15
34.97
31.02
27.72
25.04
22.40
18.85
13.49
5.97
-3.38
-13.58
-23.46
-32.06
-39.04
-44.68
-49.82
-55.52
-62.76
-72.00
-82.92
-94.18
-103.57
-108.43
-106.41
-96.33
-78.63
-55.41
-29.78
-4.91
16.78
34.08
46.86
55.57
60.73
62.74
61.88
58.56
53.46
47.51
41.50
35.94
30.92
26.21
21.55
16.89
12.46
8.51
5.10
1.81
-2.14
-7.65
-15.27
-24.88
-35.71
-46.61
-56.55
-65.10
-72.64
-80.14
-88.84
-99.54
-112.18
-125.52
-137.20
-144.32
-144.31
-135.84
-119.44
-97.50
-73.52
-51.15
-33.20
-21.06
-14.52
-12.01
-11.02
-8.71
-2.67
8.40
24.32
43.48
63.41
81.63
96.47
107.23
114.02
117.28
117.43
114.76
109.60
102.51
94.17
85.32
76.48
68.04
60.18
53.06
46.80
41.39
36.61
31.96
26.78
20.48
12.77
3.80
-5.91
-15.67
-24.86
-33.16
-40.72
-48.08
-56.07
-65.51
-76.85
-89.60
-102.16
-111.92
-115.91
-111.76
-98.64
-77.62
-51.48
-23.69
2.50
24.90
42.56
55.47
64.15
69.21
71.24
70.80
68.48
64.93
60.66
56.05
51.25
46.32
41.34
36.47
31.97
28.02
24.56
21.26
17.50
12.67
6.35
-1.46
-10.33
-19.58
-28.57
-36.80
-44.23
-51.21
-58.41
-66.69
-76.60
-87.95
-99.43
-108.58
-112.47
-108.58
-95.85
-75.19
-49.26
-21.55
4.71
27.36
45.55
59.35
69.24
75.69
79.05
79.68
78.11
75.02
71.10
66.85
62.49
57.97
53.15
48.02
42.74
37.60
32.82
28.37
23.95
18.99
12.98
5.69
-2.74
-11.74
-20.63
-28.83
-36.13
-42.78
-49.51
-57.27
-66.80
-78.20
-90.48
-101.46
-108.20
-107.90
-98.82
-81.07
-56.60
-28.56
-0.39
25.25
46.80
63.79
76.39
84.93
89.74
91.17
89.76
86.25
81.52
76.38
71.26
66.30
61.36
56.32
51.26
46.49
42.37
38.99
36.03
32.72
28.19
21.83
13.63
4.18
-5.51
-14.47
-22.14
-28.51
-34.11
-39.81
-46.56
-55.12
-65.72
-77.77
-89.61
-98.70
-102.14
-97.67
-84.46
-63.61
-37.84
-10.68
14.65
36.01
52.53
64.38
72.09
76.20
77.13
75.29
71.37
66.25
60.86
55.80
51.28
47.02
42.64
37.95
33.14
28.59
24.59
21.01
17.28
12.62
6.47
-1.17
-9.73
-18.36
-26.31
-33.31
-39.55
-45.67
-52.44
-60.58
-70.47
-81.86
-93.65
-103.78
-109.55
-108.33
-98.56
-80.45
-56.06
-28.74
-2.00
21.48
40.45
54.84
65.16
71.97
75.53
75.94
73.51
68.90
63.15
57.33
52.16
47.87
44.24
40.88
37.45
33.81
29.96
25.89
21.42
16.24
10.05
2.81
-5.21
-13.50
-21.48
-28.72
-35.23
-41.47
-48.24
-56.40
-66.44
-78.00
-89.66
-98.98
-103.17
-99.88
-88.18
-68.92
-44.53
-18.20
7.09
29.32
47.60
61.86
72.31
79.10
82.30
82.08
79.04
74.15
68.57
63.19
58.44
54.22
50.07
45.59
40.64
35.50
30.68
26.62
23.33
20.35
16.86
12.06
5.56
-2.48
-11.38
-20.20
-28.21
-35.06
-40.99
-46.64
-52.90
-60.59
-70.14
-81.24
-92.63
-102.05
-106.76
-104.27
-93.29
-74.29
-49.50
-22.18
4.39
27.86
47.15
62.27
73.67
81.73
86.50
87.92
86.17
81.97
76.51
71.10
66.64
63.35
60.81
58.26
55.03
50.97
46.39
41.89
37.99
34.78
31.85
28.42
23.69
17.20
9.09
0.01
-9.06
-17.18
-23.89
-29.29
-33.99
-38.92
-44.94
-52.65
-62.19
-73.01
-83.86
-92.78
-97.44
-95.74
-86.59
-70.33
-48.81
-24.78
-1.04
20.39
38.47
52.99
64.09
71.81
76.04
76.78
74.43
69.95
64.61
59.58
55.60
52.66
50.27
47.71
44.45
40.45
36.13
32.05
28.61
25.74
22.86
19.10
13.77
6.60
-2.05
-11.33
-20.21
-27.84
-33.90
-38.62
-42.68
-47.02
-52.46
-59.61
-68.48
-78.35
-87.69
-94.22
-95.53
-89.79
-76.49
-56.74
-33.03
-8.49
14.09
32.84
47.00
56.64
62.20
64.21
63.21
59.87
54.99
49.47
44.01
39.00
34.47
30.23
26.09
22.00
18.14
14.71
11.76
9.06
6.12
2.35
-2.65
-8.92
-16.08
-23.48
-30.46
-36.57
-41.75
-46.35
-51.07
-56.78
-64.19
-73.33
-83.21
-91.71
-96.07
-93.77
-83.54
-65.98
-43.49
-19.45
2.95
21.63
35.89
46.10
53.00
57.11
58.58
57.45
53.92
48.60
42.36
36.10
30.45
25.70
21.85
18.80
16.39
14.39
12.47
10.16
6.93
2.38
-3.59
-10.74
-18.57
-26.54
-34.18
-41.27
-47.98
-54.74
-62.18
-70.80
-80.50
-90.29
-98.19
-101.60
-98.20
-86.79
-67.92
-43.77
-17.62
7.24
28.38
44.59
55.84
62.82
66.37
67.20
65.83
62.66
58.21
53.04
47.73
42.70
38.09
33.85
29.81
25.86
22.00
18.21
14.36
10.15
5.17
-0.82
-7.68
-14.94
-21.90
-28.00
-33.13
-37.65
-42.37
-48.20
-55.82
-65.40
-76.26
-86.83
-94.79
-97.60
-93.24
-80.99
-61.73
-37.84
-12.50
11.28
31.36
46.83
57.76
64.78
68.60
69.74
68.63
65.75
61.69
57.14
52.70
48.68
45.08
41.66
38.17
34.51
30.80
27.20
23.77
20.32
16.38
11.42
5.09
-2.56
-11.07
-19.64
-27.46
-34.03
-39.37
-44.10
-49.32
-56.18
-65.44
-76.87
-88.98
-99.21
-104.48
-102.18
-91.11
-71.95
-47.10
-19.88
6.43
29.46
48.04
61.95
71.54
77.28
79.59
78.89
75.82
71.22
66.09
61.26
57.13
53.64
50.30
46.58
42.22
37.38
32.63
28.51
25.17
22.20
18.73
13.88
7.22
-0.99
-9.88
-18.40
-25.72
-31.60
-36.39
-40.88
-46.04
-52.77
-61.60
-72.40
-84.16
-94.85
-101.73
-102.14
-94.32
-78.24
-55.69
-29.76
-3.86
19.30
38.23
52.61
62.78
69.20
72.16
71.89
68.84
63.84
57.98
52.31
47.46
43.50
40.02
36.54
32.77
28.81
24.99
21.59
18.58
15.45
11.47
6.00
-1.11
-9.44
-18.12
-26.22
-33.17
-39.00
-44.32
-50.06
-57.12
-66.05
-76.78
-88.41
-99.17
-106.61
-108.19
-102.08
-87.88
-66.93
-42.06
-16.63
6.43
25.37
39.77
50.05
56.92
60.94
62.36
61.34
58.20
53.52
47.99
42.29
36.88
32.00
27.74
24.06
20.85
17.90
14.92
11.48
7.24
1.97
-4.30
-11.32
-18.67
-25.94
-32.81
-39.16
-45.23
-51.55
-58.94
-68.09
-79.10
-90.98
-101.52
-107.72
-106.75
-97.01
-78.85
-54.58
-27.62
-1.42
21.48
39.95
53.96
64.04
70.73
74.34
75.05
73.19
69.37
64.43
59.16
54.13
49.49
45.13
40.82
36.44
32.01
27.63
23.37
19.05
14.35
8.89
2.46
-4.89
-12.81
-20.80
-28.43
-35.58
-42.47
-49.69
-57.98
-67.90
-79.42
-91.52
-102.16
-108.62
-108.32
-99.67
-82.74
-59.28
-32.22
-4.78
20.36
41.63
58.43
70.88
79.34
84.16
85.71
84.48
81.21
76.83
72.12
67.57
63.28
58.97
54.43
49.63
44.95
40.87
37.75
35.39
33.07
29.69
24.31
16.54
6.75
-4.03
-14.54
-23.77
-31.32
-37.54
-43.44
-50.26
-59.04
-70.12
-82.77
-95.17
-104.67
-108.36
-104.03
-90.85
-69.81
-43.46
-15.16
11.85
35.30
54.13
68.33
78.37
84.78
87.89
88.05
85.78
81.90
77.40
73.11
69.45
66.24
62.99
59.17
54.57
49.46
44.43
40.04
36.58
33.72
30.68
26.51
20.43
12.29
2.60
-7.62
-17.28
-25.56
-32.29
-37.89
-43.23
-49.29
-56.97
-66.72
-78.32
-90.54
-101.21
-107.54
-106.84
-97.54
-79.82
-55.75
-28.63
-1.92
21.69
40.83
55.25
65.32
71.55
74.35
74.12
71.45
67.14
62.11
57.11
52.44
48.05
43.73
39.34
35.02
31.09
27.77
24.97
22.19
18.65
13.66
7.03
-0.87
-9.20
-17.08
-23.95
-29.74
-34.92
-40.25
-46.56
-54.52
-64.36
-75.53
-86.55
-95.14
-98.64
-94.89
-83.12
-64.27
-40.85
-16.17
6.78
26.04
40.94
51.77
59.16
63.59
65.31
64.45
61.36
56.66
51.21
45.81
40.96
36.79
33.16
29.78
26.41
22.85
18.89
14.31
8.83
2.34
-5.05
-12.97
-20.87
-28.31
-35.02
-41.03
-46.70
-52.62
-59.40
-67.53
-76.93
-86.64
-94.82
-99.00
-96.90
-87.20
-70.21
-47.78
-22.83
1.69
23.53
41.52
55.40
65.36
71.74
74.79
74.90
72.63
68.83
64.39
59.99
55.93
52.16
48.45
44.67
40.81
37.08
33.61
30.36
26.95
22.86
17.51
10.64
2.34
-6.88
-16.26
-25.09
-32.91
-39.75
-46.07
-52.74
-60.68
-70.49
-81.92
-93.61
-103.15
-107.62
-104.55
-92.81
-73.19
-48.11
-20.90
5.24
28.11
46.70
61.00
71.39
78.26
81.82
82.31
80.23
76.38
71.78
67.28
63.35
59.98
56.78
53.30
49.37
45.12
41.02
37.51
34.65
32.03
28.76
23.90
16.86
7.81
-2.38
-12.45
-21.29
-28.36
-33.90
-38.75
-43.99
-50.64
-59.26
-69.74
-81.12
-91.53
-98.45
-99.25
-92.03
-76.44
-53.97
-27.61
-0.89
23.23
43.08
58.29
69.38
76.95
81.39
82.78
81.25
77.36
72.13
66.77
62.23
58.82
56.19
53.67
50.68
47.09
43.21
39.52
36.35
33.54
30.49
26.38
20.55
12.81
3.54
-6.45
-16.16
-24.81
-31.98
-37.75
-42.68
-47.59
-53.39
-60.81
-70.10
-80.70
-91.10
-98.94
-101.59
-97.01
-84.48
-65.00
-41.05
-15.79
7.88
27.97
43.65
54.93
62.23
66.03
66.72
64.78
60.82
55.62
49.97
44.42
39.24
34.43
29.92
25.69
21.89
18.65
15.93
13.39
10.40
6.26
0.54
-6.71
-14.98
-23.46
-31.38
-38.24
-43.92
-48.76
-53.49
-59.03
-66.21
-75.25
-85.30
-94.31
-99.40
-97.86
-88.12
-70.59
-47.53
-22.30
1.78
22.42
38.66
50.61
58.82
63.76
65.67
64.76
61.43
56.42
50.67
45.01
39.98
35.64
31.82
28.29
24.95
21.86
19.01
16.21
13.00
8.86
3.46
-3.16
-10.48
-17.87
-24.75
-30.97
-36.76
-42.65
-49.35
-57.42
-67.11
-77.96
-88.70
-97.18
-100.84
-97.45
-86.00
-67.18
-43.30
-17.62
6.68
27.36
43.45
55.04
62.68
67.03
68.53
67.58
64.63
60.35
55.49
50.70
46.33
42.43
38.83
35.34
31.90
28.56
25.33
22.10
18.59
14.39
9.15
2.82
-4.45
-12.17
-19.87
-27.17
-33.96
-40.45
-47.18
-54.81
-63.94
-74.68
-86.29
-97.07
-104.47
-105.87
-99.36
-84.57
-62.89
-37.07
-10.41
14.23
35.00
51.18
62.87
70.55
74.67
75.61
73.79
69.80
64.48
58.74
53.35
48.67
44.58
40.70
36.70
32.50
28.38
24.73
21.68
18.92
15.68
11.05
4.48
-3.87
-13.18
-22.31
-30.35
-36.91
-42.34
-47.47
-53.33
-60.74
-69.94
-80.30
-90.28
-97.50
-99.37
-93.86
-80.27
-59.64
-34.52
-8.13
16.55
37.63
54.38
66.95
75.75
81.05
82.95
81.66
77.77
72.35
66.68
61.72
57.84
54.68
51.54
47.79
43.33
38.63
34.38
31.11
28.66
26.35
23.08
17.96
10.66
1.59
-8.28
-17.81
-26.13
-32.92
-38.44
-43.37
-48.62
-55.01
-63.03
-72.57
-82.66
-91.36
-96.18
-94.69
-85.42
-68.53
-45.87
-20.47
4.43
26.35
43.96
57.03
65.91
71.01
72.69
71.34
67.55
62.23
56.40
50.92
46.17
42.08
38.27
34.40
30.37
26.36
22.58
19.17
15.89
12.30
7.88
2.34
-4.28
-11.56
-18.87
-25.63
-31.48
-36.44
-40.96
-45.77
-51.78
-59.72
-69.71
-80.88
-91.23
-98.00
-98.44
-90.86
-75.35
-53.88
-29.71
-6.26
13.97
29.80
41.33
49.21
54.08
56.26
55.85
53.12
48.66
43.38
38.18
33.71
30.10
27.14
24.42
21.63
18.61
15.34
11.79
7.79
3.13
-2.38
-8.74
-15.70
-22.83
-29.66
-35.89
-41.57
-47.16
-53.41
-61.01
-70.15
-80.01
-88.69
-93.55
-92.02
-82.61
-65.56
-42.95
-18.02
5.88
26.18
41.67
52.37
58.99
62.41
63.34
62.17
59.24
54.89
49.63
44.05
38.70
34.01
30.18
27.20
24.91
23.00
21.04
18.59
15.18
10.46
4.28
-3.19
-11.47
-20.00
-28.22
-35.85
-42.99
-50.12
-57.95
-67.14
-77.81
-89.16
-99.36
-105.79
-105.78
-97.57
-81.06
-57.94
-31.26
-4.48
19.55
39.17
53.93
64.17
70.55
73.63
73.85
71.66
67.64
62.51
57.03
51.71
46.81
42.34
38.25
34.49
31.10
28.03
25.04
21.66
17.42
11.95
5.24
-2.37
-10.34
-18.18
-25.61
-32.68
-39.73
-47.30
-56.05
-66.39
-78.16
-90.22
-100.38
-105.82
-103.89
-93.16
-74.07
-48.97
-21.34
5.32
28.45
46.86
60.53
70.04
76.01
78.93
79.18
77.22
73.71
69.34
64.70
60.15
55.82
51.74
47.97
44.61
41.69
39.14
36.65
33.76
29.97
24.94
18.53
10.91
2.46
-6.33
-14.97
-23.16
-30.93
-38.75
-47.36
-57.52
-69.43
-82.26
-93.94
-101.56
-102.24
-94.23
-77.63
-54.49
-28.05
-1.75
21.84
41.35
56.48
67.48
74.63
78.14
78.31
75.71
71.24
66.01
60.90
56.41
52.54
49.00
45.47
41.80
38.04
34.34
30.62
26.57
21.69
15.56
8.16
-0.11
-8.50
-16.32
-23.22
-29.39
-35.45
-42.20
-50.36
-60.35
-71.99
-84.33
-95.54
-103.03
-104.16
-97.04
-81.41
-58.94
-32.84
-6.77
16.24
34.55
48.00
57.32
63.44
66.93
67.95
66.54
62.92
57.61
51.46
45.34
39.92
35.45
31.79
28.55
25.27
21.56
17.20
12.13
6.37
-0.01
-6.90
-14.18
-21.65
-29.11
-36.40
-43.56
-50.87
-58.91
-68.17
-78.67
-89.42
-98.42
-102.98
-100.58
-89.87
-71.34
-47.25
-20.93
4.36
26.26
43.78
56.94
66.33
72.53
75.84
76.42
74.50
70.56
65.33
59.61
54.10
49.24
45.19
41.84
38.90
36.02
32.73
28.61
23.38
16.94
9.40
1.11
-7.47
-15.91
-23.89
-31.30
-38.30
-45.40
-53.27
-62.60
-73.63
-85.64
-96.79
-104.31
-105.35
-97.92
-81.79
-58.64
-31.54
-3.93
21.35
42.65
59.47
72.05
80.74
85.80
87.36
85.74
81.57
75.84
69.65
63.85
58.79
54.35
50.07
45.61
40.92
36.34
32.32
29.00
26.08
22.75
18.17
11.85
3.94
-4.81
-13.38
-21.01
-27.46
-33.09
-38.69
-45.23
-53.52
-63.90
-75.92
-88.09
-97.93
-102.49
-99.24
-87.05
-66.77
-41.05
-13.41
12.80
35.40
53.58
67.51
77.71
84.51
87.96
88.12
85.39
80.67
75.23
70.20
66.24
63.34
60.88
58.11
54.49
50.01
45.13
40.50
36.55
33.24
29.98
25.92
20.32
13.00
4.37
-4.67
-13.09
-20.12
-25.61
-29.95
-34.02
-38.81
-45.18
-53.65
-64.09
-75.62
-86.51
-94.32
-96.48
-91.15
-77.84
-57.81
-33.67
-8.63
14.54
34.04
49.26
60.35
67.70
71.66
72.49
70.58
66.57
61.44
56.13
51.35
47.29
43.71
40.15
36.30
32.21
28.28
24.97
22.40
20.24
17.67
13.80
8.09
0.58
-8.07
-16.86
-24.89
-31.60
-36.99
-41.48
-45.83
-50.94
-57.67
-66.47
-77.03
-88.00
-97.08
-101.53
-99.03
-88.57
-70.91
-48.39
-24.16
-1.20
18.40
33.76
44.88
52.24
56.31
57.54
56.30
53.12
48.69
43.74
38.88
34.46
30.51
26.91
23.47
20.04
16.54
12.90
9.02
4.77
-0.02
-5.46
-11.52
-17.96
-24.45
-30.58
-36.15
-41.21
-46.21
-51.86
-58.96
-67.81
-77.82
-87.30
-93.65
-94.21
-87.16
-72.31
-51.27
-26.97
-2.66
18.99
36.47
49.45
58.33
63.70
66.09
65.91
63.52
59.40
54.15
48.37
42.65
37.38
32.77
28.84
25.45
22.31
19.08
15.39
10.93
5.49
-0.92
-8.15
-15.86
-23.67
-31.16
-38.12
-44.49
-50.54
-56.78
-63.91
-72.48
-82.47
-92.85
-101.51
-105.66
-102.66
-91.12
-71.55
-46.30
-18.91
7.08
29.14
46.17
58.26
66.16
70.61
72.14
71.20
68.24
63.98
59.21
54.57
50.40
46.69
43.18
39.60
35.84
31.92
27.91
23.79
19.36
14.27
8.19
0.98
-7.19
-15.87
-24.42
-32.24
-39.00
-44.85
-50.42
-56.69
-64.59
-74.46
-85.58
-96.02
-102.92
-103.48
-95.90
-80.11
-57.84
-32.07
-6.03
17.73
37.74
53.49
65.06
72.70
76.70
77.42
75.47
71.69
66.96
62.03
57.31
52.88
48.64
44.51
40.54
36.87
33.64
30.81
28.09
24.94
20.75
15.04
7.74
-0.79
-9.84
-18.51
-26.15
-32.50
-37.86
-43.06
-49.21
-57.27
-67.55
-79.32
-90.63
-98.71
-100.68
-94.59
-80.08
-58.68
-33.27
-7.17
16.81
36.95
52.65
63.96
71.19
74.65
74.69
71.91
67.26
61.84
56.57
51.92
47.82
43.86
39.65
35.12
30.56
26.47
23.17
20.60
18.20
15.07
10.43
3.92
-4.19
-13.10
-21.77
-29.38
-35.59
-40.65
-45.31
-50.55
-57.34
-66.19
-76.90
-88.19
-97.85
-103.01
-101.01
-90.39
-71.56
-46.88
-19.93
5.59
27.03
43.24
54.42
61.44
65.13
65.97
64.15
59.93
53.89
46.95
40.16
34.32
29.78
26.42
23.83
21.56
19.16
16.30
12.68
8.02
2.22
-4.58
-12.02
-19.57
-26.75
-33.36
-39.53
-45.71
-52.52
-60.54
-70.12
-81.02
-92.21
-101.75
-107.03
-105.50
-95.55
-77.29
-52.75
-25.29
1.41
24.54
42.70
55.93
65.01
70.79
73.73
73.93
71.40
66.43
59.75
52.33
45.16
38.98
34.08
30.35
27.40
24.68
21.58
17.64
12.59
6.39
-0.76
-8.52
-16.49
-24.37
-32.01
-39.45
-46.91
-54.83
-63.75
-74.12
-85.88
-98.02
-108.44
-114.28
-112.78
-102.33
-83.17
-57.46
-28.61
-0.21
25.02
45.72
61.70
73.41
81.32
85.75
86.93
85.27
81.54
76.67
71.56
66.76
62.35
58.21
54.18
50.29
46.75
43.67
40.85
37.69
33.38
27.25
19.13
9.48
-0.75
-10.56
-19.23
-26.59
-33.08
-39.58
-47.15
-56.70
-68.66
-82.53
-96.68
-108.40
-114.50
-112.17
-100.10
-79.01
-51.53
-21.42
7.61
32.87
53.09
68.19
78.73
85.39
88.65
88.92
86.74
82.91
78.40
74.10
70.47
67.43
64.49
61.04
56.76
51.79
46.68
42.11
38.37
35.24
31.94
27.50
21.15
12.80
3.04
-7.08
-16.46
-24.45
-31.15
-37.29
-43.99
-52.28
-62.74
-75.18
-88.44
-100.48
-108.67
-110.35
-103.63
-88.15
-65.30
-37.95
-9.64
16.51
38.53
55.75
68.46
77.29
82.71
85.00
84.42
81.50
77.11
72.27
67.76
63.91
60.53
57.17
53.43
49.30
45.10
41.18
37.74
34.48
30.77
25.87
19.28
11.01
1.57
-8.20
-17.44
-25.64
-32.79
-39.39
-46.36
-54.70
-65.11
-77.54
-90.92
-103.10
-111.28
-112.73
-105.69
-90.09
-67.62
-41.32
-14.64
9.52
29.48
44.75
55.69
62.86
66.69
67.47
65.52
61.48
56.27
50.90
46.10
42.15
38.90
35.98
33.12
30.21
27.23
24.08
20.49
16.05
10.47
3.76
-3.79
-11.67
-19.41
-26.74
-33.64
-40.34
-47.26
-54.99
-64.01
-74.40
-85.39
-95.15
-101.09
-100.57
-91.89
-75.06
-51.97
-25.75
0.18
23.13
41.61
55.37
64.89
70.86
73.87
74.26
72.28
68.28
62.79
56.53
50.22
44.45
39.53
35.48
32.07
28.94
25.71
22.05
17.66
12.27
5.84
-1.53
-9.46
-17.48
-25.10
-32.13
-38.58
-44.84
-51.45
-59.09
-68.15
-78.39
-88.59
-96.57
-99.62
-95.44
-83.03
-63.20
-38.48
-12.22
12.46
33.49
50.04
62.22
70.55
75.52
77.56
77.14
74.87
71.48
67.58
63.54
59.44
55.15
50.60
45.88
41.25
36.99
33.26
29.83
26.15
21.45
15.16
7.08
-2.37
-12.37
-22.01
-30.57
-37.87
-44.19
-50.28
-57.01
-65.17
-75.07
-86.11
-96.59
-103.87
-105.08
-98.09
-82.43
-59.59
-32.60
-5.00
20.19
41.17
57.42
69.23
77.11
81.51
82.75
81.26
77.68
72.90
67.84
63.17
59.13
55.59
52.13
48.43
44.47
40.51
36.94
33.97
31.41
28.58
24.64
18.86
11.09
1.82
-7.92
-17.00
-24.63
-30.71
-35.85
-41.13
-47.75
-56.53
-67.52
-79.75
-91.23
-99.26
-101.19
-95.16
-80.87
-59.71
-34.49
-8.51
15.32
35.14
50.24
60.74
67.12
69.86
69.38
66.19
61.06
54.97
48.97
43.76
39.56
36.13
32.93
29.58
26.04
22.64
19.73
17.41
15.31
12.67
8.71
2.97
-4.36
-12.53
-20.58
-27.69
-33.54
-38.41
-43.02
-48.37
-55.33
-64.30
-74.89
-85.68
-94.36
-98.26
-95.15
-84.16
-66.12
-43.45
-19.36
3.18
22.15
36.83
47.43
54.60
58.88
60.58
59.79
56.73
51.84
45.79
39.42
33.44
28.30
24.15
20.87
18.18
15.79
13.36
10.61
7.23
2.97
-2.32
-8.59
-15.52
-22.57
-29.18
-34.98
-40.00
-44.81
-50.33
-57.53
-66.76
-77.39
-87.49
-94.33
-95.11
-88.02
-73.00
-51.82
-27.53
-3.42
17.90
35.03
47.78
56.60
62.05
64.57
64.43
62.02
57.94
53.00
47.94
43.26
39.12
35.43
32.02
28.76
25.60
22.43
19.04
15.08
10.25
4.42
-2.32
-9.63
-17.04
-24.23
-30.99
-37.39
-43.76
-50.66
-58.65
-68.07
-78.47
-88.39
-95.49
-97.08
-91.10
-77.01
-56.09
-31.12
-5.48
17.92
37.29
51.99
62.27
68.68
71.76
72.00
69.87
65.92
60.78
55.02
49.16
43.55
38.38
33.75
29.66
25.99
22.60
19.26
15.73
11.74
7.08
1.56
-4.85
-11.95
-19.33
-26.45
-32.88
-38.48
-43.63
-49.12
-55.95
-64.74
-75.28
-86.14
-94.83
-98.38
-94.39
-81.89
-61.77
-36.53
-9.49
16.22
38.40
55.94
68.66
76.87
81.02
81.63
79.33
74.92
69.37
63.52
57.97
52.96
48.39
44.03
39.67
35.31
31.15
27.44
24.21
21.21
17.84
13.40
7.45
0.04
-8.21
-16.43
-23.81
-30.04
-35.37
-40.56
-46.60
-54.33
-64.18
-75.82
-88.06
-98.81
-105.43
-105.47
-97.33
-81.05
-58.35
-32.29
-6.34
16.61
34.84
47.93
56.35
60.89
62.24
60.92
57.45
52.57
47.20
42.27
38.38
35.59
33.48
31.50
29.30
26.91
24.60
22.61
20.80
18.58
15.21
10.14
3.31
-4.73
-13.13
-21.05
-28.08
-34.35
-40.45
-47.20
-55.36
-65.21
-76.18
-86.68
-94.28
-96.21
-90.37
-76.16
-54.90
-29.57
-3.82
19.12
37.41
50.64
59.47
64.81
67.31
67.17
64.44
59.36
52.60
45.15
38.09
32.18
27.71
24.46
21.90
19.43
16.56
13.03
8.72
3.65
-2.08
-8.33
-14.92
-21.58
-28.13
-34.50
-40.87
-47.65
-55.37
-64.41
-74.55
-84.68
-92.76
-96.23
-92.81
-81.42
-62.68
-38.96
-13.59
10.11
29.78
44.48
54.44
60.51
63.47
63.78
61.55
56.92
50.40
42.94
35.71
29.72
25.48
22.79
20.91
18.89
15.97
11.83
6.60
0.70
-5.40
-11.41
-17.29
-23.17
-29.32
-36.06
-43.79
-52.89
-63.52
-75.34
-87.16
-96.91
-102.03
-100.16
-90.05
-72.15
-48.65
-22.78
2.12
23.55
40.33
52.47
60.60
65.50
67.63
67.22
64.49
59.82
53.94
47.74
42.09
37.55
34.27
31.90
29.76
27.11
23.35
18.21
11.82
4.59
-2.98
-10.47
-17.69
-24.66
-31.59
-38.80
-46.72
-55.80
-66.29
-78.02
-89.95
-100.08
-105.77
-104.40
-94.34
-75.72
-50.52
-22.10
5.81
30.17
49.31
62.98
71.93
77.32
80.15
81.01
80.11
77.52
73.43
68.22
62.49
56.87
51.76
47.34
43.42
39.66
35.69
31.23
26.12
20.33
13.96
7.14
0.06
-7.15
-14.38
-21.65
-29.11
-37.16
-46.27
-56.78
-68.53
-80.46
-90.56
-96.14
-94.67
-84.71
-66.60
-42.48
-15.69
10.28
32.78
50.45
63.20
71.68
76.71
78.89
78.57
76.02
71.65
66.13
60.27
54.88
50.45
47.08
44.52
42.29
39.87
36.84
32.92
27.96
21.96
14.97
7.24
-0.86
-8.95
-16.72
-24.13
-31.49
-39.39
-48.49
-59.15
-70.98
-82.63
-91.85
-95.99
-92.80
-81.30
-62.21
-37.86
-11.55
13.44
34.72
51.11
62.58
69.71
73.26
73.84
71.84
67.65
61.82
55.09
48.27
42.10
36.97
32.89
29.51
26.23
22.46
17.79
12.14
5.76
-0.92
-7.47
-13.61
-19.36
-24.96
-30.77
-37.22
-44.66
-53.35
-63.23
-73.75
-83.64
-90.95
-93.43
-89.17
-77.35
-58.67
-35.32
-10.36
13.21
33.20
48.56
59.34
66.07
69.39
69.76
67.52
63.11
57.25
50.89
44.98
40.19
36.70
34.16
31.92
29.29
25.76
21.14
15.56
9.37
2.97
-3.30
-9.33
-15.21
-21.24
-27.83
-35.45
-44.43
-54.76
-65.82
-76.19
-83.77
-86.17
-81.52
-69.08
-49.82
-26.16
-1.30
21.71
40.78
55.09
64.90
70.94
73.99
74.54
72.88
69.33
64.44
58.94
53.56
48.81
44.88
41.68
38.92
36.26
33.34
29.82
25.36
19.76
13.06
5.57
-2.17
-9.57
-16.34
-22.53
-28.59
-35.17
-42.93
-52.27
-63.13
-74.73
-85.44
-92.94
-94.75
-88.97
-75.13
-54.43
-29.57
-3.91
19.58
39.03
53.83
64.33
71.21
75.05
76.20
74.97
71.77
67.27
62.25
57.33
52.89
48.99
45.46
42.12
38.86
35.59
32.17
28.33
23.73
18.06
11.32
3.81
-3.88
-11.07
-17.27
-22.37
-26.68
-30.90
-35.91
-42.49
-50.95
-60.76
-70.41
-77.57
-79.69
-74.81
-62.41
-43.71
-21.31
1.58
22.16
38.76
50.85
58.87
63.54
65.52
65.19
62.83
58.79
53.61
47.96
42.48
37.63
33.57
30.26
27.50
25.02
22.58
19.92
16.82
13.00
8.30
2.64
-3.86
-10.87
-17.89
-24.42
-30.10
-34.96
-39.46
-44.42
-50.66
-58.61
-67.71
-76.42
-82.38
-83.16
-77.10
-64.01
-45.32
-23.64
-1.95
17.28
32.58
43.56
50.55
54.15
54.91
53.22
49.47
44.11
37.80
31.31
25.42
20.67
17.25
14.94
13.21
11.35
8.78
5.13
0.46
-4.90
-10.47
-15.90
-21.01
-25.85
-30.64
-35.63
-41.04
-47.06
-53.84
-61.32
-69.00
-75.74
-79.83
-79.33
-72.84
-60.06
-42.14
-21.38
-0.58
17.86
32.49
42.94
49.60
53.11
53.97
52.44
48.74
43.23
36.63
29.90
23.95
19.42
16.45
14.66
13.40
11.95
9.75
6.60
2.51
-2.32
-7.63
-13.18
-18.79
-24.37
-29.94
-35.65
-41.75
-48.57
-56.38
-65.05
-73.84
-81.25
-85.26
-83.86
-75.82
-61.22
-41.57
-19.42
2.45
21.77
37.27
48.68
56.32
60.73
62.35
61.51
58.59
54.18
48.99
43.78
39.11
35.26
32.22
29.74
27.52
25.19
22.43
18.90
14.43
9.00
2.80
-3.80
-10.39
-16.71
-22.72
-28.59
-34.65
-41.23
-48.66
-57.04
-66.02
-74.63
-81.23
-83.79
-80.49
-70.37
-53.83
-32.66
-9.55
12.71
31.89
46.82
57.33
63.94
67.39
68.36
67.32
64.61
60.53
55.50
50.03
44.60
39.58
35.10
31.06
27.35
23.91
20.73
17.75
14.80
11.46
7.28
2.01
-4.21
-10.79
-16.93
-21.99
-25.80
-28.80
-31.90
-36.13
-42.25
-50.41
-59.85
-68.94
-75.44
-77.03
-72.01
-59.94
-41.89
-20.22
2.08
22.28
38.52
50.15
57.48
61.32
62.52
61.69
59.24
55.48
50.86
45.92
41.16
36.92
33.26
30.03
27.03
24.15
21.36
18.66
15.87
12.64
8.57
3.38
-2.87
-9.76
-16.67
-23.04
-28.51
-33.15
-37.32
-41.71
-46.98
-53.63
-61.56
-69.87
-76.85
-80.32
-78.26
-69.56
-54.61
-35.21
-14.12
5.89
22.75
35.47
44.06
48.98
50.84
50.05
46.97
42.05
35.95
29.51
23.56
18.74
15.30
13.14
11.86
10.89
9.59
7.44
4.15
-0.27
-5.49
-11.03
-16.50
-21.71
-26.77
-32.01
-37.83
-44.56
-52.29
-60.84
-69.53
-77.21
-82.21
-82.75
-77.36
-65.55
-48.15
-27.24
-5.58
14.24
30.42
42.32
50.20
54.71
56.43
55.63
52.48
47.23
40.52
33.29
26.59
21.18
17.36
14.84
12.91
10.77
7.82
3.78
-1.20
-6.78
-12.50
-18.11
-23.52
-28.86
-34.41
-40.51
-47.52
-55.68
-64.93
-74.67
-83.57
-89.68
-90.87
-85.49
-73.03
-54.46
-32.06
-8.76
12.74
30.60
44.08
53.37
59.13
61.95
62.15
59.88
55.38
49.21
42.33
35.87
30.75
27.28
25.16
23.46
21.18
17.64
12.76
6.98
1.02
-4.60
-9.74
-14.64
-19.73
-25.44
-32.04
-39.77
-48.85
-59.33
-70.81
-82.10
-91.10
-95.22
-92.23
-81.07
-62.54
-39.02
-13.85
9.79
29.70
45.05
56.03
63.36
67.62
69.08
67.79
63.99
58.28
51.73
45.50
40.42
36.71
33.93
31.27
28.02
23.85
18.88
13.50
8.10
2.79
-2.51
-8.02
-13.89
-20.16
-26.83
-34.05
-42.09
-51.22
-61.29
-71.39
-79.74
-84.04
-82.17
-73.00
-56.89
-35.67
-12.08
11.00
31.36
47.74
59.83
67.86
72.27
73.41
71.58
67.14
60.73
53.25
45.75
39.19
34.12
30.63
28.33
26.53
24.53
21.76
17.95
13.09
7.36
1.09
-5.41
-11.89
-18.25
-24.61
-31.24
-38.59
-47.07
-56.83
-67.41
-77.57
-85.32
-88.37
-84.83
-73.97
-56.57
-34.83
-11.68
10.11
28.59
42.97
53.29
59.95
63.20
63.11
59.75
53.63
45.81
37.77
30.93
26.11
23.28
21.61
19.89
17.12
12.83
7.23
0.98
-5.21
-10.91
-16.13
-21.24
-26.81
-33.35
-41.15
-50.31
-60.63
-71.54
-82.03
-90.49
-94.95
-93.49
-84.97
-69.52
-48.71
-25.16
-1.80
19.03
35.99
48.74
57.55
62.79
64.66
63.27
58.93
52.42
45.03
38.20
33.09
30.08
28.67
27.73
26.00
22.59
17.31
10.64
3.46
-3.41
-9.54
-15.01
-20.35
-26.26
-33.46
-42.40
-53.07
-64.94
-76.67
-86.29
-91.43
-89.97
-80.71
-63.95
-41.54
-16.38
8.38
30.24
47.85
60.98
70.13
75.95
78.87
79.13
76.91
72.61
67.00
60.99
55.43
50.81
47.13
44.05
41.05
37.68
33.64
28.84
23.27
17.01
10.17
2.89
-4.63
-12.24
-19.82
-27.42
-35.25
-43.72
-53.19
-63.64
-74.31
-83.51
-88.87
-88.00
-79.42
-63.15
-40.98
-15.82
9.11
31.30
49.39
63.11
72.83
79.00
81.95
81.94
79.45
75.26
70.41
65.87
62.21
59.48
57.31
55.25
52.96
50.42
47.75
45.07
42.25
38.84
34.31
28.22
20.53
11.68
2.48
-6.18
-13.63
-19.69
-24.76
-29.71
-35.56
-43.19
-52.86
-63.96
-74.87
-83.22
-86.44
-82.56
-70.87
-52.32
-29.25
-4.75
18.32
37.97
53.37
64.60
72.11
76.40
77.74
76.43
72.96
68.20
63.24
59.03
56.10
54.29
52.96
51.33
48.88
45.60
41.89
38.32
35.15
32.24
28.96
24.59
18.57
10.91
2.12
-6.91
-15.27
-22.33
-27.90
-32.23
-35.94
-39.88
-44.89
-51.62
-60.18
-69.83
-78.88
-84.95
-85.61
-79.23
-65.64
-46.29
-23.79
-1.19
18.99
35.18
46.83
54.15
57.60
57.77
55.25
50.77
45.25
39.63
34.64
30.64
27.55
25.00
22.58
20.06
17.37
14.57
11.68
8.52
4.81
0.24
-5.27
-11.55
-18.15
-24.51
-30.21
-35.05
-39.20
-43.15
-47.59
-53.18
-60.24
-68.50
-76.82
-83.32
-85.79
-82.34
-72.12
-55.69
-34.98
-12.69
8.46
26.43
40.20
49.62
55.09
57.19
56.44
53.31
48.35
42.22
35.73
29.68
24.68
20.98
18.44
16.68
15.23
13.64
11.57
8.77
5.09
0.47
-4.97
-10.90
-16.90
-22.55
-27.59
-32.12
-36.57
-41.58
-47.80
-55.58
-64.57
-73.61
-80.74
-83.66
-80.46
-70.27
-53.70
-32.72
-10.08
11.41
29.67
43.62
53.10
58.60
60.85
60.59
58.46
55.00
50.68
45.86
40.89
36.07
31.69
28.01
25.24
23.38
22.23
21.33
20.07
17.84
14.26
9.31
3.35
-3.03
-9.20
-14.72
-19.50
-23.84
-28.42
-34.03
-41.46
-51.02
-62.12
-72.99
-80.87
-82.90
-77.35
-64.69
-47.86
-31.49
-20.15
-16.79
-21.70
-32.67
-45.98
-57.60
-64.32
-64.13
-56.39
-41.72
-21.80
0.91
23.61
43.72
59.43
69.98
75.59
77.14
75.80
72.68
68.68
64.39
60.05
55.66
51.07
46.13
40.80
35.33
30.14
25.66
22.14
19.43
17.00
14.06
9.95
4.36
-2.47
-9.84
-16.91
-23.03
-28.00
-32.14
-36.22
-41.21
-47.91
-56.52
-66.44
-76.11
-83.34
-85.75
-81.52
-69.99
-52.02
-29.79
-6.22
15.78
34.08
47.67
56.59
61.52
63.28
62.56
59.86
55.61
50.38
44.87
39.80
35.61
32.31
29.54
26.82
23.81
20.47
16.95
13.44
9.88
5.96
1.23
-4.60
-11.46
-18.88
-26.15
-32.59
-37.88
-42.24
-46.38
-51.31
-57.91
-66.48
-76.26
-85.41
-91.34
-91.49
-84.22
-69.46
-48.87
-25.31
-2.02
18.30
34.13
45.09
51.68
54.69
54.92
52.95
49.21
44.17
38.38
32.54
27.30
23.12
20.09
17.94
16.16
14.18
11.58
8.16
3.96
-0.87
-6.16
-11.79
-17.67
-23.71
-29.80
-35.86
-42.00
-48.52
-55.91
-64.53
-74.19
-83.88
-91.68
-95.18
-92.14
-81.47
-63.67
-40.86
-16.16
7.25
27.02
42.12
52.64
59.32
62.92
63.93
62.61
59.25
54.36
48.66
42.93
37.73
33.25
29.35
25.77
22.18
18.28
13.88
8.83
3.12
-3.15
-9.78
-16.52
-23.24
-29.89
-36.65
-43.77
-51.58
-60.38
-70.22
-80.68
-90.64
-98.24
-101.22
-97.58
-86.34
-68.01
-44.60
-19.05
5.63
27.12
44.17
56.54
64.65
69.13
70.58
69.53
66.44
61.85
56.35
50.60
45.13
40.32
36.30
32.95
30.03
27.13
23.84
19.76
14.62
8.34
1.05
-6.87
-14.95
-22.74
-29.98
-36.73
-43.33
-50.39
-58.58
-68.30
-79.40
-90.81
-100.53
-105.94
-104.53
-94.74
-76.69
-52.24
-24.54
2.93
27.31
46.95
61.45
71.28
77.24
80.02
80.21
78.32
75.00
70.97
66.82
62.90
59.17
55.38
51.35
47.12
42.98
39.21
35.85
32.51
28.53
23.27
16.44
8.31
-0.45
-8.98
-16.65
-23.31
-29.28
-35.28
-42.29
-51.14
-62.15
-74.76
-87.26
-97.03
-101.14
-97.23
-84.45
-63.84
-38.10
-10.76
14.92
36.80
54.02
66.71
75.46
80.77
82.93
82.25
79.20
74.54
69.20
63.99
59.33
55.27
51.56
47.93
44.26
40.60
36.98
33.35
29.37
24.59
18.58
11.18
2.63
-6.48
-15.42
-23.60
-30.80
-37.31
-43.87
-51.40
-60.67
-71.80
-83.96
-95.23
-102.95
-104.35
-97.58
-82.36
-60.23
-34.20
-7.78
15.97
35.22
49.49
59.26
65.34
68.43
68.90
66.90
62.71
56.88
50.25
43.79
38.19
33.73
30.18
27.03
23.66
19.69
14.97
9.59
3.74
-2.42
-8.80
-15.32
-21.89
-28.45
-35.01
-41.82
-49.38
-58.28
-68.83
-80.59
-92.05
-100.74
-103.83
-99.12
-85.84
-65.17
-39.85
-13.37
11.17
31.80
47.87
59.71
67.94
72.95
74.78
73.38
68.98
62.36
54.78
47.62
41.90
37.94
35.29
33.04
30.26
26.39
21.37
15.53
9.31
2.98
-3.43
-10.04
-16.98
-24.27
-31.94
-40.15
-49.26
-59.65
-71.23
-82.98
-92.81
-97.90
-95.64
-84.57
-65.14
-39.64
-11.52
15.73
39.49
58.46
72.49
82.02
87.62
89.66
88.44
84.38
78.21
70.91
63.54
56.95
51.53
47.21
43.55
39.96
35.87
30.98
25.20
18.73
11.81
4.71
-2.40
-9.48
-16.56
-23.77
-31.31
-39.49
-48.78
-59.44
-71.30
-83.26
-93.21
-98.39
-96.16
-85.10
-65.60
-39.98
-11.71
15.58
39.21
57.80
71.26
80.16
85.27
87.16
86.32
83.29
78.75
73.42
67.94
62.67
57.67
52.89
48.27
43.90
39.92
36.36
33.03
29.51
25.25
19.86
13.24
5.68
-2.28
-10.11
-17.46
-24.34
-31.15
-38.53
-47.17
-57.34
-68.58
-79.46
-87.65
-90.55
-86.07
-73.50
-53.80
-29.44
-3.67
20.47
40.81
56.38
67.11
73.51
76.19
75.71
72.67
67.74
61.74
55.51
49.75
44.88
40.98
37.92
35.42
33.18
30.92
28.34
25.14
21.01
15.70
9.25
1.93
-5.78
-13.26
-20.03
-25.89
-31.03
-36.04
-41.69
-48.71
-57.40
-67.33
-77.13
-84.68
-87.50
-83.51
-71.81
-53.07
-29.54
-4.42
19.04
38.42
52.50
61.30
65.58
66.38
64.56
60.80
55.64
49.63
43.34
37.32
31.93
27.40
23.72
20.77
18.35
16.09
13.57
10.31
5.95
0.35
-6.31
-13.55
-20.83
-27.65
-33.75
-39.13
-44.14
-49.30
-55.27
-62.53
-71.10
-80.16
-87.99
-92.26
-90.69
-81.86
-65.84
-44.28
-19.98
3.94
24.87
41.24
52.60
59.33
62.20
62.04
59.52
55.23
49.72
43.60
37.53
32.12
27.77
24.55
22.18
20.09
17.68
14.49
10.37
5.45
0.02
-5.61
-11.27
-16.90
-22.47
-28.03
-33.63
-39.37
-45.57
-52.62
-60.76
-69.76
-78.55
-85.22
-87.37
-82.93
-70.97
-52.22
-29.00
-4.54
17.99
36.39
49.76
58.39
63.10
64.76
63.94
61.02
56.38
50.63
44.59
39.03
34.40
30.75
27.80
25.13
22.48
19.75
16.90
13.83
10.26
5.83
0.29
-6.33
-13.57
-20.79
-27.38
-33.01
-37.80
-42.39
-47.68
-54.44
-62.90
-72.34
-80.95
-86.26
-85.76
-77.82
-62.38
-41.09
-16.87
6.98
27.72
43.79
54.87
61.52
64.61
64.91
63.02
59.44
54.75
49.63
44.72
40.43
36.84
33.75
30.87
28.04
25.27
22.58
19.86
16.78
12.84
7.61
1.04
-6.51
-14.30
-21.55
-27.74
-32.79
-37.14
-41.55
-46.92
-53.85
-62.39
-71.65
-79.90
-84.77
-83.97
-76.03
-60.87
-39.99
-16.06
7.85
29.16
46.23
58.49
66.16
69.84
70.22
67.95
63.73
58.34
52.57
47.14
42.42
38.45
34.91
31.47
27.91
24.29
20.81
17.63
14.60
11.33
7.32
2.20
-4.05
-11.04
-18.21
-24.96
-30.91
-36.02
-40.66
-45.45
-51.19
-58.52
-67.45
-77.03
-85.31
-89.74
-87.90
-78.50
-61.85
-39.92
-15.74
7.58
27.63
43.09
53.75
60.03
62.63
62.25
59.45
54.81
48.94
42.53
36.28
30.73
26.21
22.74
20.06
17.74
15.33
12.42
8.82
4.49
-0.44
-5.75
-11.26
-16.79
-22.26
-27.70
-33.23
-39.07
-45.54
-52.96
-61.48
-70.79
-79.95
-87.28
-90.71
-88.38
-79.29
-63.76
-43.53
-21.27
0.21
18.72
33.11
43.23
49.51
52.48
52.54
49.88
44.85
38.14
30.81
24.08
18.90
15.60
13.78
12.56
10.94
8.26
4.39
-0.30
-5.26
-10.06
-14.59
-19.10
-23.98
-29.62
-36.34
-44.30
-53.57
-63.90
-74.50
-83.87
-89.92
-90.48
-84.05
-70.46
-51.07
-28.38
-5.24
15.93
33.65
47.30
56.88
62.60
64.69
63.44
59.32
53.10
45.78
38.41
31.94
26.98
23.65
21.60
20.07
18.15
15.09
10.55
4.64
-2.12
-9.12
-15.92
-22.42
-28.79
-35.43
-42.78
-51.23
-61.05
-72.13
-83.74
-94.40
-101.91
-103.86
-98.40
-84.92
-64.45
-39.38
-12.87
12.06
33.20
49.46
60.73
67.53
70.58
70.65
68.42
64.52
59.59
54.21
48.88
43.90
39.48
35.71
32.59
30.02
27.77
25.44
22.54
18.59
13.35
6.83
-0.58
-8.39
-16.13
-23.54
-30.61
-37.68
-45.35
-54.29
-64.92
-76.99
-89.30
-99.65
-105.27
-103.60
-93.27
-74.64
-49.81
-22.01
5.32
29.47
48.87
63.14
72.65
78.12
80.27
79.74
77.15
73.20
68.61
64.09
60.13
56.83
54.01
51.31
48.45
45.36
42.19
39.09
35.97
32.43
27.83
21.58
13.50
3.98
-6.10
-15.67
-23.96
-30.73
-36.50
-42.31
-49.36
-58.52
-69.81
-82.14
-93.29
-100.38
-100.69
-92.50
-75.78
-52.23
-24.84
3.04
28.51
49.75
66.03
77.37
84.22
87.05
86.41
83.02
77.74
71.58
65.42
59.88
55.15
51.14
47.60
44.34
41.32
38.54
35.94
33.26
30.02
25.71
19.98
12.81
4.51
-4.23
-12.68
-20.25
-26.69
-32.24
-37.59
-43.70
-51.44
-61.04
-71.73
-81.61
-88.03
-88.30
-80.63
-64.81
-42.34
-16.03
10.81
35.26
55.29
69.94
79.15
83.38
83.30
79.65
73.32
65.27
56.60
48.33
41.27
35.81
31.87
29.03
26.72
24.41
21.73
18.53
14.81
10.68
6.28
1.68
-3.10
-8.20
-13.87
-20.49
-28.54
-38.58
-51.01
-65.84
-82.27
-98.56
-112.13
-120.05
-119.95
-110.82
-93.41
-70.13
-44.32
-19.26
2.55
19.78
32.07
39.64
42.88
42.23
38.14
31.38
23.00
14.36
6.79
1.21
-2.09
-3.56
-4.14
-4.88
-6.59
-9.61
-13.74
-18.43
-23.15
-27.60
-31.87
-36.41
-41.92
-49.02
-58.07
-68.86
-80.42
-91.03
-98.35
-100.00
-94.26
-80.67
-60.39
-35.84
-10.04
14.28
35.27
52.04
64.30
72.00
75.04
73.52
68.01
59.78
50.65
42.45
36.44
32.86
31.01
29.60
27.40
23.70
18.53
12.46
6.27
0.52
-4.73
-9.86
-15.58
-22.64
-31.59
-42.58
-55.19
-68.26
-79.89
-87.67
-89.21
-82.90
-68.51
-47.57
-22.91
2.06
24.44
42.46
55.60
64.18
68.75
69.70
67.26
61.86
54.42
46.35
39.18
34.00
30.95
29.27
27.64
24.91
20.53
14.74
8.32
2.12
-3.40
-8.40
-13.45
-19.40
-26.93
-36.42
-47.80
-60.42
-72.95
-83.46
-89.62
-89.21
-80.84
-64.51
-41.85
-15.73
10.55
34.16
53.31
67.34
76.50
81.32
82.43
80.34
75.60
68.96
61.35
53.79
47.16
42.03
38.52
36.33
34.87
33.37
31.11
27.52
22.30
15.55
7.61
-0.94
-9.55
-17.86
-25.78
-33.52
-41.53
-50.38
-60.52
-72.05
-84.47
-96.35
-105.46
-109.14
-105.09
-92.25
-71.26
-44.50
-15.34
12.79
37.29
56.77
70.98
80.33
85.47
87.09
85.92
82.80
78.65
74.30
70.32
66.85
63.68
60.43
56.83
52.89
48.83
44.96
41.36
37.73
33.40
27.62
19.95
10.53
0.08
-10.36
-19.82
-27.83
-34.56
-40.78
-47.63
-56.19
-67.05
-79.84
-93.02
-103.95
-109.52
-107.02
-95.18
-74.65
-47.94
-18.60
9.86
34.88
55.36
71.23
82.99
91.09
95.75
97.06
95.34
91.36
86.23
81.11
76.77
73.47
70.86
68.39
65.54
62.09
58.19
54.19
50.43
46.97
43.55
39.55
34.34
27.46
18.94
9.29
-0.66
-10.03
-18.28
-25.28
-31.39
-37.22
-43.50
-50.90
-59.95
-70.79
-82.92
-94.97
-104.68
-109.31
-106.43
-94.79
-74.90
-49.02
-20.52
7.16
31.40
50.83
65.25
75.11
80.98
83.30
82.41
78.81
73.32
67.05
61.17
56.51
53.25
51.01
49.00
46.52
43.20
39.17
34.86
30.74
27.02
23.47
19.55
14.64
8.35
0.77
-7.49
-15.53
-22.48
-27.85
-31.70
-34.65
-37.61
-41.54
-47.20
-54.88
-64.26
-74.22
-82.92
-88.00
-87.21
-79.18
-63.91
-43.00
-19.19
4.41
25.19
41.50
52.78
59.25
61.56
60.53
57.02
51.96
46.30
40.84
36.09
32.20
29.02
26.25
23.69
21.25
18.96
16.77
14.47
11.67
7.98
3.16
-2.78
-9.55
-16.63
-23.46
-29.57
-34.74
-39.16
-43.42
-48.33
-54.62
-62.47
-71.12
-78.82
-83.17
-81.92
-73.69
-58.65
-38.46
-15.84
6.24
25.43
40.43
50.93
57.33
60.23
60.24
57.93
53.94
49.05
44.02
39.49
35.72
32.59
29.79
26.99
24.01
20.89
17.77
14.70
11.57
8.02
3.70
-1.62
-7.83
-14.51
-21.09
-27.10
-32.35
-37.06
-41.81
-47.27
-54.04
-62.25
-71.29
-79.75
-85.57
-86.53
-80.96
-68.34
-49.68
-27.28
-4.10
17.12
34.51
47.27
55.58
60.08
61.52
60.51
57.55
53.18
48.03
42.82
38.16
34.35
31.30
28.67
26.08
23.31
20.34
17.29
14.20
10.89
7.00
2.20
-3.62
-10.22
-17.02
-23.45
-29.11
-33.99
-38.43
-43.08
-48.64
-55.64
-64.02
-72.92
-80.68
-85.08
-84.04
-76.35
-62.14
-42.97
-21.31
0.14
19.24
34.67
45.97
53.26
56.91
57.44
55.50
51.82
47.24
42.50
38.18
34.57
31.73
29.52
27.75
26.24
24.85
23.44
21.83
19.73
16.83
12.88
7.79
1.73
-4.92
-11.64
-17.92
-23.38
-27.93
-31.80
-35.60
-40.13
-46.17
-53.95
-62.84
-71.14
-76.48
-76.57
-70.01
-56.89
-38.83
-18.41
1.66
19.30
33.39
43.66
50.38
53.97
54.78
53.18
49.60
44.68
39.17
33.77
29.01
25.12
22.08
19.72
17.89
16.52
15.55
14.80
13.92
12.41
9.81
5.86
0.65
-5.41
-11.68
-17.56
-22.79
-27.47
-32.16
-37.65
-44.59
-53.10
-62.41
-70.86
-76.29
-76.62
-70.61
-58.36
-41.40
-22.21
-3.52
12.46
24.55
32.67
37.42
39.61
39.70
37.86
34.02
28.37
21.53
14.49
8.35
3.88
1.27
0.11
-0.32
-0.77
-1.87
-3.90
-6.95
-10.91
-15.58
-20.71
-26.06
-31.46
-36.88
-42.45
-48.45
-55.23
-63.04
-71.80
-80.78
-88.52
-93.00
-92.22
-84.88
-71.01
-52.16
-30.88
-10.03
8.16
22.48
32.83
39.71
43.70
45.13
44.07
40.62
35.25
28.80
22.40
17.06
13.34
11.19
10.03
9.06
7.57
5.17
1.86
-2.09
-6.37
-10.76
-15.20
-19.88
-24.99
-30.74
-37.26
-44.62
-52.87
-61.85
-71.07
-79.40
-85.10
-86.15
-80.95
-68.97
-51.11
-29.61
-7.33
13.10
29.96
42.68
51.54
57.21
60.29
61.17
60.12
57.40
53.48
48.91
44.29
40.14
36.74
34.12
32.04
30.01
27.43
23.76
18.67
12.23
4.75
-3.21
-11.15
-18.74
-25.85
-32.50
-38.89
-45.38
-52.54
-60.99
-71.02
-82.15
-92.75
-100.27
-101.88
-95.58
-81.05
-59.85
-34.96
-9.71
13.20
32.24
47.01
57.81
65.06
69.08
70.20
68.93
66.09
62.64
59.45
56.94
55.00
53.20
51.03
48.26
45.01
41.64
38.39
35.19
31.56
26.81
20.50
12.61
3.70
-5.34
-13.70
-20.94
-27.21
-33.09
-39.40
-46.92
-56.08
-66.73
-77.96
-88.00
-94.47
-94.94
-87.73
-72.63
-51.06
-25.81
-0.09
23.37
42.97
58.30
69.72
77.76
82.72
84.66
83.73
80.50
75.96
71.30
67.48
64.83
63.01
61.32
59.13
56.30
53.15
50.22
47.81
45.70
43.16
39.29
33.45
25.57
16.20
6.32
-3.08
-11.33
-18.24
-24.18
-29.84
-36.03
-43.51
-52.61
-63.09
-73.91
-83.21
-88.70
-88.20
-80.36
-65.23
-44.38
-20.45
3.58
25.22
42.97
56.29
65.36
70.58
72.44
71.44
68.29
63.92
59.35
55.44
52.61
50.72
49.28
47.71
45.70
43.32
40.81
38.43
36.15
33.56
30.07
25.13
18.47
10.31
1.28
-7.80
-16.12
-23.25
-29.19
-34.47
-39.94
-46.52
-54.82
-64.73
-75.17
-84.11
-89.05
-87.73
-78.96
-63.11
-42.08
-18.70
4.08
24.00
39.86
51.35
58.79
62.68
63.50
61.76
58.02
52.96
47.31
41.66
36.45
31.89
28.01
24.74
21.97
19.48
17.00
14.22
10.84
6.66
1.64
-4.07
-10.24
-16.54
-22.69
-28.56
-34.14
-39.74
-45.81
-52.86
-61.12
-70.19
-78.81
-85.02
-86.58
-81.73
-69.88
-51.98
-30.29
-7.70
13.08
30.25
43.11
51.87
57.20
59.77
60.15
58.74
55.89
52.04
47.72
43.45
39.61
36.46
34.06
32.32
31.05
29.88
28.38
26.03
22.39
17.20
10.51
2.69
-5.68
-13.97
-21.65
-28.51
-34.67
-40.63
-47.12
-54.83
-63.99
-73.93
-82.95
-88.60
-88.34
-80.56
-65.17
-43.86
-19.57
4.43
25.41
41.79
53.20
60.14
63.43
63.95
62.42
59.48
55.73
51.72
47.89
44.49
41.53
38.81
36.15
33.41
30.62
27.86
25.10
22.17
18.69
14.24
8.55
1.71
-5.81
-13.34
-20.22
-26.11
-31.09
-35.67
-40.63
-46.76
-54.49
-63.58
-72.87
-80.37
-83.70
-80.75
-70.49
-53.47
-31.78
-8.40
13.63
32.09
45.98
55.39
61.06
63.85
64.42
63.19
60.53
56.89
52.83
48.91
45.45
42.46
39.73
36.98
34.14
31.34
28.83
26.72
24.82
22.59
19.34
14.60
8.31
0.95
-6.68
-13.71
-19.64
-24.53
-29.02
-34.06
-40.57
-49.00
-58.92
-68.88
-76.68
-79.90
-76.66
-66.34
-49.78
-29.10
-7.10
13.57
31.01
44.31
53.41
58.75
60.93
60.52
58.06
54.14
49.36
44.33
39.52
35.15
31.26
27.76
24.56
21.64
19.08
16.91
14.99
12.97
10.40
6.81
1.99
-3.90
-10.44
-17.00
-22.98
-28.07
-32.31
-36.15
-40.35
-45.64
-52.40
-60.27
-67.94
-73.35
-74.24
-68.97
-57.17
-39.99
-19.79
0.58
18.71
33.10
43.29
49.54
52.36
52.28
49.81
45.50
40.15
34.63
29.76
25.96
23.22
21.17
19.32
17.24
14.72
11.68
8.07
3.82
-1.09
-6.55
-12.31
-17.96
-23.15
-27.74
-31.88
-35.99
-40.71
-46.63
-54.04
-62.77
-71.88
-79.80
-84.49
-84.02
-77.19
-64.05
-46.00
-25.43
-5.06
12.85
26.96
36.97
43.22
46.27
46.52
44.25
39.75
33.55
26.57
19.90
14.49
10.88
8.93
7.97
7.11
5.51
2.72
-1.27
-6.06
-11.16
-16.11
-20.69
-24.92
-29.05
-33.47
-38.63
-44.95
-52.65
-61.61
-71.01
-79.32
-84.43
-84.25
-77.36
-63.63
-44.47
-22.47
-0.66
18.42
33.26
43.57
49.91
53.09
53.80
52.42
49.14
44.30
38.51
32.58
27.33
23.33
20.57
18.72
17.18
15.36
12.89
9.60
5.50
0.64
-4.85
-10.84
-17.09
-23.33
-29.34
-35.05
-40.70
-46.81
-54.02
-62.65
-72.26
-81.42
-87.88
-89.16
-83.44
-70.32
-51.04
-28.16
-4.71
16.68
34.38
47.80
57.08
62.66
64.96
64.36
61.34
56.58
50.97
45.41
40.54
36.59
33.42
30.64
27.94
25.26
22.74
20.49
18.37
15.92
12.48
7.54
1.07
-6.46
-14.22
-21.39
-27.52
-32.66
-37.35
-42.42
-48.77
-57.07
-67.43
-79.03
-89.97
-97.51
-98.82
-92.01
-76.87
-55.19
-30.12
-5.10
17.18
35.37
49.39
59.76
66.99
71.24
72.52
71.01
67.38
62.78
58.43
55.21
53.28
52.14
50.95
49.06
46.28
42.97
39.67
36.80
34.29
31.61
27.94
22.64
15.51
6.93
-2.30
-11.22
-19.17
-25.89
-31.62
-36.95
-42.63
-49.40
-57.78
-67.86
-79.00
-89.68
-97.59
-100.14
-95.31
-82.46
-62.67
-38.51
-13.16
10.53
30.82
47.06
59.39
68.09
73.31
75.11
73.73
69.93
64.93
60.11
56.51
54.55
53.91
53.75
53.13
51.37
48.28
44.23
39.81
35.55
31.63
27.66
22.94
16.80
8.94
-0.26
-9.90
-18.89
-26.42
-32.29
-36.94
-41.23
-46.10
-52.32
-60.28
-69.91
-80.53
-90.75
-98.55
-101.64
-98.07
-86.94
-68.85
-45.86
-20.89
3.10
23.90
40.40
52.43
60.41
64.87
66.26
65.02
61.73
57.24
52.57
48.57
45.68
43.73
42.15
40.24
37.60
34.29
30.80
27.66
25.13
22.93
20.33
16.46
10.72
3.08
-5.81
-14.93
-23.24
-30.10
-35.54
-40.16
-44.89
-50.70
-58.18
-67.43
-77.83
-88.06
-96.12
-99.79
-97.10
-87.05
-70.06
-47.94
-23.44
0.57
21.86
39.25
52.53
62.00
68.07
70.99
70.99
68.51
64.33
59.54
55.23
52.11
50.30
49.33
48.45
46.99
44.69
41.74
38.54
35.43
32.39
29.09
24.97
19.56
12.70
4.59
-4.17
-12.84
-20.76
-27.48
-32.94
-37.41
-41.56
-46.18
-52.15
-60.07
-69.97
-81.04
-91.49
-98.84
-100.45
-94.44
-80.36
-59.50
-34.52
-8.74
14.86
34.31
48.85
58.65
64.40
66.83
66.61
64.32
60.65
56.43
52.50
49.55
47.93
47.48
47.65
47.74
47.16
45.70
43.45
40.77
37.97
35.22
32.44
29.40
25.77
21.30
15.86
9.55
2.62
-4.51
-11.40
-17.66
-23.11
-27.76
-31.87
-35.95
-40.63
-46.60
-54.37
-63.87
-74.13
-83.20
-88.56
-87.80
-79.53
-63.95
-42.90
-19.28
3.92
24.41
41.00
53.51
62.32
67.89
70.53
70.49
68.21
64.40
60.04
56.10
53.23
51.58
50.83
50.35
49.49
47.80
45.13
41.64
37.64
33.46
29.24
24.88
20.10
14.51
7.96
0.54
-7.26
-14.75
-21.35
-26.76
-31.12
-34.93
-38.92
-43.81
-50.22
-58.31
-67.67
-77.11
-84.72
-88.26
-85.82
-76.43
-60.56
-40.02
-17.44
4.51
23.80
39.37
51.02
59.02
63.79
65.69
65.10
62.55
58.85
54.95
51.76
49.74
48.78
48.26
47.41
45.69
43.05
39.92
36.86
34.22
31.77
28.83
24.61
18.58
10.81
1.95
-6.99
-15.09
-21.79
-27.14
-31.71
-36.34
-41.89
-48.97
-57.56
-66.87
-75.41
-81.13
-82.02
-76.68
-64.89
-47.80
-27.69
-7.29
10.96
25.54
36.01
42.74
46.47
47.86
47.29
44.99
41.26
36.61
31.76
27.43
24.02
21.55
19.65
17.79
15.54
12.75
9.48
5.91
2.13
-1.97
-6.58
-11.85
-17.70
-23.80
-29.76
-35.37
-40.83
-46.73
-53.79
-62.33
-71.84
-80.84
-87.06
-88.23
-82.78
-70.59
-53.01
-32.57
-12.10
6.08
20.57
31.05
37.82
41.46
42.45
41.12
37.78
32.89
27.15
21.39
16.40
12.73
10.53
9.52
9.15
8.71
7.57
5.33
1.87
-2.72
-8.15
-14.05
-20.05
-25.90
-31.46
-36.86
-42.42
-48.61
-55.88
-64.31
-73.34
-81.63
-87.14
-87.72
-81.76
-68.88
-50.17
-27.98
-5.15
15.70
32.85
45.66
54.28
59.29
61.35
61.02
58.81
55.21
50.76
45.98
41.32
37.06
33.34
30.17
27.50
25.18
23.01
20.65
17.63
13.52
8.00
1.12
-6.72
-14.81
-22.49
-29.33
-35.32
-40.91
-46.80
-53.79
-62.36
-72.40
-82.94
-92.10
-97.42
-96.50
-87.88
-71.63
-49.54
-24.56
0.10
21.85
39.30
52.15
60.83
65.93
68.01
67.54
65.08
61.34
57.11
53.04
49.46
46.37
43.52
40.67
37.78
34.94
32.26
29.64
26.75
23.02
18.00
11.54
3.93
-4.19
-12.04
-18.97
-24.66
-29.20
-33.13
-37.31
-42.76
-50.24
-59.84
-70.56
-80.26
-86.09
-85.42
-76.71
-60.23
-38.05
-13.33
10.64
31.43
47.85
59.84
67.95
72.72
74.50
73.50
70.14
65.21
59.80
55.00
51.48
49.26
47.76
46.17
43.82
40.56
36.74
32.96
29.67
26.83
23.94
20.22
15.04
8.18
0.04
-8.55
-16.62
-23.43
-28.78
-33.01
-36.85
-41.16
-46.70
-53.83
-62.45
-71.80
-80.47
-86.56
-87.98
-83.15
-71.47
-53.72
-31.88
-8.61
13.47
32.46
47.33
57.80
64.00
66.29
65.10
61.16
55.48
49.34
43.93
40.03
37.75
36.50
35.37
33.50
30.44
26.33
21.71
17.25
13.37
9.94
6.40
2.01
-3.73
-10.83
-18.69
-26.44
-33.26
-38.79
-43.21
-47.19
-51.60
-57.18
-64.33
-72.91
-82.13
-90.52
-96.12
-96.87
-91.23
-78.80
-60.55
-38.70
-15.99
5.10
22.93
36.89
47.10
53.98
57.90
59.06
57.72
54.47
50.21
46.02
42.76
40.76
39.80
39.19
38.27
36.62
34.25
31.48
28.67
25.98
23.16
19.69
14.94
8.55
0.59
-8.33
-17.31
-25.43
-32.06
-37.22
-41.42
-45.58
-50.73
-57.70
-66.82
-77.61
-88.68
-97.73
-102.15
-99.63
-89.10
-71.16
-48.04
-22.86
1.25
22.09
38.68
51.12
59.98
65.78
68.77
69.10
67.13
63.58
59.46
55.76
53.09
51.53
50.62
49.74
48.37
46.28
43.57
40.53
37.40
34.26
30.94
27.07
22.24
16.14
8.77
0.41
-8.37
-16.90
-24.65
-31.35
-37.10
-42.25
-47.40
-53.22
-60.32
-69.04
-79.09
-89.39
-97.99
-102.46
-100.55
-91.00
-74.13
-51.84
-27.03
-2.72
18.85
36.58
50.44
60.89
68.45
73.29
75.42
74.95
72.36
68.53
64.48
61.07
58.62
56.94
55.44
53.52
50.81
47.33
43.41
39.46
35.79
32.40
29.02
25.21
20.55
14.82
8.14
0.89
-6.40
-13.21
-19.25
-24.47
-29.11
-33.65
-38.68
-44.86
-52.68
-62.26
-73.03
-83.55
-91.70
-95.09
-91.86
-81.26
-64.10
-42.50
-19.19
3.21
22.86
38.89
51.20
60.01
65.57
68.06
67.78
65.25
61.33
56.99
53.08
50.00
47.61
45.41
42.83
39.66
36.07
32.56
29.59
27.29
25.24
22.68
18.80
13.17
5.92
-2.32
-10.64
-18.21
-24.57
-29.69
-33.97
-38.06
-42.72
-48.61
-56.12
-65.12
-74.81
-83.67
-89.63
-90.60
-85.10
-72.87
-55.02
-33.82
-11.98
8.05
24.66
37.21
45.81
50.90
52.94
52.37
49.64
45.39
40.47
35.73
31.76
28.73
26.32
24.03
21.43
18.43
15.29
12.38
9.86
7.47
4.59
0.54
-5.09
-12.15
-19.94
-27.53
-34.14
-39.53
-44.09
-48.67
-54.27
-61.61
-70.83
-81.19
-91.08
-98.21
-100.27
-95.54
-83.59
-65.43
-43.29
-19.95
1.99
20.79
35.58
46.28
53.15
56.60
57.10
55.28
51.96
48.06
44.39
41.34
38.90
36.69
34.26
31.36
28.04
24.61
21.30
18.10
14.69
10.51
5.09
-1.75
-9.70
-18.09
-26.10
-33.11
-38.91
-43.83
-48.58
-54.03
-60.91
-69.46
-79.07
-88.29
-94.95
-96.76
-91.91
-79.80
-61.29
-38.52
-14.31
8.60
28.19
43.47
54.37
61.44
65.39
66.92
66.61
64.93
62.33
59.23
55.99
52.79
49.59
46.22
42.56
38.65
34.70
31.00
27.64
24.35
20.59
15.73
9.42
1.83
-6.46
-14.61
-21.98
-28.38
-34.20
-40.26
-47.58
-56.87
-68.16
-80.47
-91.81
-99.57
-101.22
-95.20
-81.39
-61.28
-37.44
-12.81
10.11
29.76
45.57
57.63
66.32
72.02
74.97
75.48
74.00
71.18
67.77
64.37
61.26
58.36
55.39
52.06
48.35
44.50
40.84
37.52
34.29
30.60
25.75
19.29
11.29
2.34
-6.62
-14.75
-21.53
-27.08
-32.03
-37.37
-44.12
-52.91
-63.60
-75.02
-85.05
-91.06
-90.71
-82.75
-67.53
-46.88
-23.54
-0.33
20.68
38.33
52.34
62.82
69.99
74.00
75.09
73.68
70.46
66.31
62.07
58.30
55.23
52.64
50.12
47.28
43.95
40.26
36.56
33.11
29.86
26.40
22.12
16.51
9.48
1.43
-6.86
-14.55
-21.09
-26.40
-30.85
-35.20
-40.28
-46.84
-55.29
-65.39
-76.04
-85.32
-90.82
-90.32
-82.61
-67.97
-48.12
-25.73
-3.50
16.52
33.25
46.40
56.06
62.30
65.13
64.74
61.69
57.03
52.05
47.81
44.81
42.83
41.16
39.06
36.13
32.47
28.59
25.00
21.85
18.87
15.40
10.75
4.55
-3.06
-11.45
-19.78
-27.22
-33.38
-38.36
-42.71
-47.25
-52.85
-60.07
-69.00
-78.97
-88.50
-95.47
-97.58
-93.13
-81.58
-63.92
-42.41
-19.85
1.28
19.44
34.13
45.58
54.15
60.05
63.30
63.94
62.39
59.50
56.35
53.84
52.35
51.62
50.95
49.57
47.12
43.75
39.99
36.41
33.22
30.08
26.27
21.04
14.00
5.36
-4.05
-13.17
-21.07
-27.31
-32.04
-35.89
-39.73
-44.45
-50.71
-58.75
-68.21
-78.02
-86.37
-91.03
-89.95
-81.97
-67.28
-47.49
-25.15
-3.00
16.84
33.19
45.86
55.24
61.80
65.88
67.64
67.28
65.20
62.09
58.76
55.89
53.77
52.21
50.68
48.64
45.74
42.01
37.79
33.51
29.46
25.68
21.95
17.93
13.32
7.96
1.95
-4.42
-10.80
-16.80
-22.20
-26.94
-31.15
-35.16
-39.39
-44.34
-50.49
-58.15
-67.16
-76.69
-85.13
-90.37
-90.37
-83.77
-70.53
-51.98
-30.46
-8.63
11.24
27.82
40.71
50.25
57.05
61.65
64.37
65.36
64.74
62.79
59.99
56.93
54.05
51.58
49.42
47.31
45.00
42.37
39.48
36.43
33.25
29.85
26.12
22.02
17.62
13.05
8.40
3.63
-1.38
-6.73
-12.35
-17.96
-23.22
-27.89
-31.95
-35.70
-39.68
-44.51
-50.68
-58.37
-67.27
-76.33
-83.90
-87.90
-86.36
-78.15
-63.37
-43.55
-21.22
0.82
20.30
35.92
47.43
55.34
60.31
62.93
63.52
62.28
59.51
55.74
51.64
47.82
44.68
42.20
40.09
37.87
35.16
31.80
27.95
23.89
19.94
16.32
12.98
9.66
5.98
1.53
-3.89
-10.18
-16.93
-23.49
-29.25
-33.90
-37.44
-40.27
-42.97
-46.11
-50.21
-55.59
-62.23
-69.63
-76.68
-81.63
-82.55
-77.93
-67.25
-51.37
-32.28
-12.48
5.74
20.92
32.52
40.67
45.72
48.01
47.77
45.33
41.26
36.44
31.84
28.25
26.00
24.82
24.08
23.05
21.31
18.87
16.11
13.47
11.14
8.90
6.17
2.33
-2.96
-9.51
-16.61
-23.32
-28.86
-32.94
-35.91
-38.64
-42.19
-47.43
-54.73
-63.66
-73.01
-80.88
-85.16
-84.07
-76.68
-63.29
-45.36
-25.09
-4.81
13.55
28.85
40.64
48.97
54.06
56.19
55.67
53.00
48.90
44.23
39.82
36.24
33.64
31.72
29.93
27.75
24.95
21.64
18.21
15.04
12.19
9.34
5.85
1.17
-4.94
-12.12
-19.65
-26.69
-32.62
-37.29
-40.99
-44.32
-47.99
-52.61
-58.68
-66.27
-74.92
-83.35
-89.68
-91.69
-87.63
-76.80
-59.95
-39.12
-17.00
3.89
21.83
36.12
46.83
54.35
59.04
61.05
60.49
57.79
53.69
49.21
45.24
42.23
40.05
38.18
36.01
33.24
29.99
26.72
23.84
21.48
19.31
16.66
12.80
7.24
0.01
-8.37
-16.98
-24.93
-31.55
-36.71
-40.82
-44.71
-49.32
-55.43
-63.27
-72.30
-81.15
-87.80
-90.06
-86.27
-75.84
-59.57
-39.37
-17.74
2.97
21.12
35.89
47.15
55.11
60.04
62.22
61.97
59.79
56.35
52.34
48.38
44.80
41.60
38.60
35.59
32.48
29.45
26.75
24.54
22.69
20.71
17.93
13.72
7.80
0.44
-7.67
-15.58
-22.49
-28.03
-32.37
-36.19
-40.40
-45.86
-53.07
-61.95
-71.61
-80.44
-86.27
-86.99
-81.11
-68.34
-49.86
-28.02
-5.64
14.73
31.52
44.18
52.95
58.36
60.84
60.72
58.37
54.41
49.70
45.11
41.21
38.06
35.32
32.58
29.63
26.67
24.07
22.03
20.30
18.21
14.92
9.89
3.10
-4.91
-13.31
-21.34
-28.50
-34.68
-40.10
-45.18
-50.52
-56.73
-64.22
-72.87
-81.76
-89.10
-92.64
-90.34
-81.19
-65.62
-45.52
-23.52
-2.29
16.18
30.89
41.65
48.72
52.51
53.37
51.68
47.99
43.05
37.73
32.82
28.83
25.89
23.76
22.06
20.45
18.75
16.95
15.03
12.87
10.11
6.32
1.16
-5.33
-12.73
-20.32
-27.40
-33.54
-38.79
-43.68
-49.10
-55.91
-64.62
-74.94
-85.62
-94.54
-99.18
-97.42
-88.24
-72.15
-51.06
-27.71
-4.83
15.58
32.47
45.61
55.18
61.45
64.68
65.21
63.59
60.60
57.15
53.93
51.24
48.93
46.60
43.84
40.52
36.72
32.71
28.61
24.31
19.45
13.59
6.57
-1.44
-9.86
-17.97
-25.18
-31.32
-36.65
-41.83
-47.72
-55.14
-64.54
-75.70
-87.51
-98.01
-104.70
-105.29
-98.41
-84.16
-64.18
-41.08
-17.69
3.80
22.17
37.12
48.89
57.81
64.11
67.89
69.31
68.75
66.76
63.99
60.92
57.83
54.79
51.76
48.79
45.95
43.32
40.77
37.94
34.31
29.38
22.97
15.28
6.87
-1.56
-9.40
-16.34
-22.46
-28.22
-34.40
-41.89
-51.37
-62.85
-75.36
-86.83
-94.55
-95.89
-89.27
-74.71
-53.90
-29.63
-4.93
17.79
37.10
52.53
64.22
72.46
77.48
79.49
78.88
76.27
72.57
68.67
65.26
62.56
60.40
58.36
56.06
53.38
50.47
47.59
44.92
42.29
39.24
35.19
29.71
22.71
14.55
5.95
-2.29
-9.59
-15.80
-21.25
-26.66
-32.95
-40.81
-50.49
-61.42
-72.11
-80.36
-83.80
-80.60
-70.12
-53.24
-32.13
-9.55
11.86
30.30
44.92
55.68
62.98
67.23
68.81
68.12
65.74
62.48
59.20
56.57
54.77
53.51
52.17
50.17
47.25
43.65
39.78
36.09
32.62
29.02
24.66
19.00
11.94
3.87
-4.47
-12.34
-19.27
-25.26
-30.73
-36.38
-42.90
-50.80
-60.15
-70.37
-80.17
-87.67
-90.82
-88.00
-78.61
-63.34
-43.97
-22.91
-2.50
15.52
30.17
41.18
48.69
53.03
54.59
53.79
51.18
47.49
43.49
39.88
37.05
35.03
33.51
32.05
30.35
28.26
25.88
23.29
20.45
17.20
13.28
8.59
3.24
-2.38
-7.80
-12.65
-16.85
-20.65
-24.56
-29.27
-35.46
-43.47
-53.08
-63.20
-72.01
-77.24
-76.87
-69.84
-56.44
-38.33
-17.93
2.30
20.53
35.83
47.98
57.09
63.27
66.57
67.07
65.13
61.49
57.14
53.04
49.77
47.44
45.63
43.73
41.26
38.09
34.48
30.90
27.72
24.97
22.29
19.05
14.61
8.66
1.30
-6.92
-15.15
-22.59
-28.69
-33.43
-37.31
-41.24
-46.26
-53.16
-62.14
-72.56
-82.83
-90.69
-93.78
-90.29
-79.64
-62.68
-41.52
-18.89
2.71
21.53
36.82
48.55
57.03
62.57
65.39
65.71
64.00
61.00
57.55
54.40
51.88
49.88
47.98
45.73
42.85
39.44
35.86
32.48
29.54
26.89
24.11
20.56
15.79
9.64
2.42
-5.19
-12.41
-18.54
-23.31
-26.85
-29.78
-32.90
-37.08
-42.92
-50.52
-59.26
-67.80
-74.19
-76.44
-73.04
-63.57
-48.82
-30.68
-11.47
6.63
22.11
34.30
43.15
49.00
52.20
53.16
52.28
50.07
47.16
44.17
41.58
39.55
37.92
36.34
34.44
32.06
29.32
26.55
24.10
22.09
20.23
17.90
14.42
9.40
2.94
-4.32
-11.45
-17.64
-22.50
-26.25
-29.56
-33.24
-38.00
-44.22
-51.74
-59.95
-67.73
-73.53
-75.65
-72.73
-64.22
-50.70
-33.82
-15.78
1.27
15.78
27.06
35.07
40.09
42.43
42.35
40.14
36.33
31.66
26.97
22.93
19.90
17.85
16.47
15.39
14.22
12.83
11.21
9.40
7.37
4.88
1.61
-2.76
-8.25
-14.59
-21.15
-27.24
-32.42
-36.61
-40.22
-43.96
-48.56
-54.49
-61.69
-69.40
-76.15
-80.10
-79.42
-72.99
-60.81
-44.10
-25.00
-5.85
11.43
25.68
36.52
44.06
48.55
50.24
49.42
46.59
42.45
37.85
33.61
30.19
27.71
25.90
24.33
22.64
20.66
18.46
16.19
13.94
11.56
8.72
5.01
0.19
-5.68
-12.22
-18.84
-25.02
-30.44
-35.15
-39.56
-44.35
-50.26
-57.72
-66.54
-75.59
-82.89
-86.12
-83.38
-73.92
-58.51
-39.26
-18.82
0.45
17.07
30.48
40.79
48.31
53.26
55.76
55.96
54.26
51.28
47.73
44.16
40.85
37.77
34.76
31.70
28.59
25.58
22.80
20.26
17.72
14.78
11.00
6.11
0.18
-6.39
-13.00
-19.07
-24.22
-28.44
-32.11
-35.90
-40.59
-46.75
-54.50
-63.22
-71.43
-77.17
-78.34
-73.45
-62.16
-45.49
-25.49
-4.76
14.39
30.41
42.68
51.32
56.83
59.74
60.44
59.30
56.69
53.15
49.25
45.54
42.35
39.72
37.37
34.90
32.00
28.60
24.94
21.39
18.20
15.30
12.30
8.64
3.90
-1.95
-8.53
-15.13
-21.04
-25.90
-29.74
-33.01
-36.45
-40.80
-46.62
-54.02
-62.42
-70.48
-76.34
-77.97
-73.91
-63.69
-48.18
-29.28
-9.44
9.13
24.85
37.04
45.67
51.10
53.73
53.89
51.98
48.47
44.05
39.51
35.54
32.52
30.41
28.81
27.24
25.36
23.09
20.62
18.15
15.65
12.80
9.04
3.90
-2.71
-10.39
-18.38
-25.84
-32.22
-37.45
-41.93
-46.37
-51.46
-57.77
-65.47
-74.26
-83.16
-90.58
-94.47
-92.89
-84.65
-69.88
-50.15
-28.08
-6.54
12.21
26.91
37.41
44.16
47.78
48.75
47.40
44.11
39.51
34.44
29.73
25.93
23.20
21.27
19.79
18.35
16.75
14.82
12.39
9.26
5.20
0.10
-5.90
-12.45
-19.08
-25.38
-31.13
-36.40
-41.54
-47.09
-53.63
-61.50
-70.40
-79.31
-86.35
-89.28
-86.18
-76.16
-59.77
-38.91
-16.35
5.18
23.64
38.05
48.38
55.12
58.98
60.48
60.03
57.98
54.73
50.70
46.36
42.02
37.85
33.95
30.37
27.16
24.37
21.87
19.35
16.31
12.21
6.74
0.03
-7.43
-14.93
-21.82
-27.76
-32.90
-37.79
-43.22
-49.96
-58.43
-68.38
-78.69
-87.44
-92.26
-91.03
-82.57
-67.15
-46.45
-23.11
0.06
20.83
37.91
50.94
60.16
66.07
69.19
70.01
68.99
66.67
63.60
60.25
56.97
53.88
50.97
48.10
45.22
42.32
39.40
36.38
33.02
28.89
23.60
16.95
9.09
0.57
-7.86
-15.53
-22.05
-27.50
-32.41
-37.62
-44.03
-52.20
-62.00
-72.42
-81.54
-86.96
-86.51
-78.93
-64.43
-44.66
-22.17
0.32
20.71
37.87
51.58
62.07
69.62
74.37
76.31
75.63
72.81
68.70
64.27
60.29
57.05
54.39
51.92
49.21
46.14
42.81
39.52
36.43
33.40
29.96
25.52
19.62
12.25
3.93
-4.49
-12.12
-18.43
-23.46
-27.82
-32.46
-38.33
-46.03
-55.55
-65.99
-75.72
-82.55
-84.31
-79.50
-67.86
-50.51
-29.66
-7.94
12.36
29.73
43.58
53.91
61.00
65.12
66.52
65.53
62.74
58.85
54.61
50.57
46.98
43.78
40.83
37.99
35.25
32.64
30.10
27.42
24.17
19.91
14.31
7.38
-0.46
-8.54
-16.11
-22.59
-27.79
-32.02
-35.96
-40.59
-46.74
-54.77
-64.22
-73.64
-80.84
-83.49
-79.87
-69.51
-53.40
-33.68
-12.99
6.32
22.72
35.54
44.79
50.75
53.82
54.36
52.82
49.79
45.93
41.90
38.11
34.79
31.89
29.31
26.91
24.60
22.37
20.09
17.64
14.71
11.01
6.34
0.66
-5.83
-12.71
-19.48
-25.69
-31.16
-36.12
-41.27
-47.45
-55.22
-64.33
-73.55
-80.74
-83.58
-80.28
-70.32
-54.62
-35.25
-14.75
4.63
21.33
34.63
44.42
50.93
54.49
55.53
54.57
52.18
49.05
45.77
42.70
40.00
37.61
35.38
33.18
30.96
28.71
26.38
23.80
20.67
16.67
11.56
5.41
-1.45
-8.44
-14.97
-20.63
-25.38
-29.58
-33.86
-39.05
-45.78
-54.21
-63.73
-72.89
-79.59
-81.62
-77.41
-66.59
-50.23
-30.53
-10.16
8.60
24.31
36.56
45.65
52.14
56.47
58.82
59.25
57.88
55.09
51.45
47.53
43.79
40.34
37.13
34.03
31.02
28.16
25.48
22.83
19.81
15.95
10.91
4.80
-1.92
-8.53
-14.40
-19.28
-23.37
-27.25
-31.67
-37.37
-44.76
-53.78
-63.58
-72.54
-78.49
-79.27
-73.50
-61.15
-43.64
-23.40
-3.10
15.13
30.17
41.83
50.45
56.42
59.98
61.22
60.30
57.67
54.07
50.32
47.07
44.62
42.81
41.22
39.40
37.17
34.58
31.85
29.10
26.18
22.67
18.07
12.05
4.76
-3.21
-10.99
-17.77
-23.11
-27.14
-30.46
-33.94
-38.51
-44.73
-52.62
-61.43
-69.67
-75.33
-76.41
-71.55
-60.50
-44.30
-25.02
-5.06
13.49
29.26
41.74
50.96
57.17
60.59
61.41
59.90
56.50
51.93
46.97
42.31
38.36
35.10
32.25
29.44
26.46
23.35
20.32
17.58
15.08
12.44
9.12
4.70
-0.91
-7.35
-13.92
-19.94
-24.96
-28.94
-32.24
-35.50
-39.48
-44.84
-51.94
-60.53
-69.63
-77.53
-82.15
-81.65
-75.06
-62.65
-45.87
-27.01
-8.44
7.98
21.23
31.10
37.87
41.93
43.62
43.19
40.94
37.35
33.09
28.88
25.25
22.43
20.33
18.64
17.08
15.52
13.95
12.37
10.66
8.55
5.66
1.73
-3.29
-9.10
-15.14
-20.81
-25.67
-29.63
-33.01
-36.48
-40.84
-46.67
-53.96
-61.87
-68.73
-72.47
-71.25
-64.11
-51.40
-34.66
-16.15
1.94
18.02
31.32
41.73
49.39
54.42
56.77
56.48
53.83
49.54
44.60
40.00
36.36
33.77
31.82
29.97
27.84
25.38
22.82
20.41
18.19
15.91
13.03
9.09
3.83
-2.64
-9.87
-17.14
-23.75
-29.19
-33.34
-36.56
-39.72
-43.82
-49.74
-57.70
-67.01
-75.96
-82.23
-83.55
-78.45
-66.79
-49.83
-29.84
-9.39
9.40
25.27
37.85
47.36
54.17
58.56
60.64
60.53
58.55
55.31
51.60
48.14
45.28
42.94
40.68
38.00
34.65
30.77
26.88
23.50
20.90
18.84
16.65
13.50
8.82
2.55
-4.75
-12.12
-18.62
-23.69
-27.41
-30.42
-33.70
-38.21
-44.50
-52.48
-61.29
-69.43
-75.00
-76.18
-71.74
-61.46
-46.26
-27.98
-8.88
9.03
24.34
36.50
45.55
51.79
55.51
56.89
56.10
53.42
49.46
44.95
40.67
37.10
34.34
32.07
29.89
27.48
24.74
21.81
18.88
15.95
12.83
9.15
4.56
-1.01
-7.32
-13.82
-19.88
-25.03
-29.19
-32.62
-35.94
-39.92
-45.15
-51.89
-59.72
-67.55
-73.71
-76.38
-74.02
-66.05
-52.95
-36.30
-18.23
-0.87
14.23
26.27
35.08
40.90
44.03
44.77
43.44
40.53
36.63
32.42
28.38
24.78
21.67
18.96
16.58
14.54
12.82
11.30
9.69
7.59
4.67
0.77
-4.01
-9.44
-15.16
-20.83
-26.17
-30.98
-35.23
-39.21
-43.44
-48.59
-55.03
-62.42
-69.50
-74.31
-74.81
-69.62
-58.63
-43.10
-25.21
-7.32
8.70
21.81
31.77
38.81
43.29
45.47
45.58
43.92
41.01
37.51
34.05
31.03
28.52
26.27
24.01
21.57
19.04
16.59
14.35
12.17
9.61
6.15
1.41
-4.54
-11.24
-18.00
-24.19
-29.50
-34.02
-38.25
-42.92
-48.74
-56.15
-64.99
-74.33
-82.50
-87.34
-86.91
-80.06
-66.95
-49.00
-28.53
-7.99
10.65
26.27
38.52
47.53
53.58
56.92
57.81
56.66
54.10
50.84
47.50
44.40
41.52
38.61
35.43
31.94
28.34
24.93
21.97
19.40
16.86
13.77
9.60
4.13
-2.48
-9.67
-16.75
-23.18
-28.75
-33.73
-38.74
-44.55
-51.76
-60.48
-70.11
-79.25
-85.99
-88.25
-84.55
-74.47
-58.83
-39.48
-18.73
1.36
19.33
34.44
46.43
55.31
61.12
63.96
64.05
61.88
58.20
53.95
49.98
46.84
44.58
42.81
40.95
38.56
35.62
32.49
29.72
27.55
25.70
23.38
19.72
14.23
7.07
-0.96
-8.81
-15.68
-21.33
-26.10
-30.74
-36.03
-42.56
-50.51
-59.52
-68.67
-76.46
-81.07
-80.76
-74.39
-61.92
-44.52
-24.27
-3.51
15.71
32.16
45.36
55.38
62.41
66.65
68.22
67.42
64.86
61.39
57.90
55.03
52.87
51.09
49.10
46.46
43.08
39.31
35.65
32.48
29.68
26.73
22.90
17.61
10.81
2.89
-5.37
-13.16
-19.95
-25.68
-30.70
-35.61
-41.09
-47.68
-55.58
-64.44
-73.26
-80.36
-83.76
-81.77
-73.53
-59.48
-41.25
-21.15
-1.53
15.92
30.33
41.53
49.63
54.70
56.79
56.08
53.16
48.96
44.57
40.78
37.94
35.82
33.96
31.90
29.43
26.64
23.72
20.79
17.73
14.22
9.87
4.45
-2.01
-9.13
-16.33
-23.01
-28.80
-33.62
-37.78
-41.85
-46.46
-52.13
-59.03
-66.71
-74.06
-79.38
-80.78
-76.74
-66.67
-51.18
-32.00
-11.44
8.28
25.52
39.43
49.85
56.99
61.14
62.61
61.77
59.12
55.42
51.46
47.90
45.02
42.67
40.38
37.71
34.45
30.80
27.19
24.05
21.51
19.32
16.84
13.38
8.51
2.25
-4.97
-12.37
-19.21
-25.04
-29.86
-34.13
-38.64
-44.24
-51.52
-60.43
-70.11
-78.90
-84.67
-85.40
-79.78
-67.70
-50.28
-29.60
-8.09
12.06
29.31
42.93
52.83
59.32
62.83
63.84
62.87
60.59
57.71
54.88
52.54
50.74
49.17
47.31
44.81
41.58
37.92
34.31
31.09
28.30
25.56
22.30
17.97
12.34
5.57
-1.80
-9.09
-15.67
-21.22
-25.80
-29.84
-34.02
-39.04
-45.49
-53.53
-62.71
-71.86
-79.16
-82.54
-80.21
-71.37
-56.48
-37.27
-16.23
4.14
21.97
36.38
47.32
55.21
60.53
63.56
64.40
63.18
60.33
56.56
52.73
49.50
47.13
45.37
43.66
41.50
38.68
35.45
32.28
29.61
27.50
25.58
23.19
19.70
14.82
8.65
1.69
-5.36
-11.87
-17.45
-22.02
-25.92
-29.73
-34.22
-40.05
-47.52
-56.31
-65.38
-73.04
-77.33
-76.54
-69.74
-57.16
-40.15
-20.79
-1.42
16.03
30.35
41.09
48.36
52.52
53.98
53.17
50.60
46.92
42.83
38.98
35.75
33.14
30.84
28.40
25.51
22.13
18.55
15.22
12.43
10.19
8.12
5.58
2.00
-2.87
-8.84
-15.32
-21.57
-27.04
-31.60
-35.59
-39.73
-44.81
-51.44
-59.68
-68.82
-77.44
-83.55
-85.19
-80.98
-70.64
-55.14
-36.45
-16.94
1.23
16.58
28.46
36.82
41.99
44.39
44.46
42.72
39.77
36.32
32.99
30.16
27.92
26.01
24.05
21.73
19.00
16.06
13.15
10.43
7.80
4.88
1.26
-3.30
-8.77
-14.82
-20.97
-26.82
-32.17
-37.17
-42.25
-48.07
-55.15
-63.56
-72.58
-80.62
-85.54
-85.26
-78.52
-65.44
-47.44
-26.84
-6.15
12.66
28.41
40.65
49.38
54.78
57.11
56.78
54.40
50.76
46.66
42.68
39.04
35.67
32.40
29.07
25.73
22.51
19.61
17.10
14.86
12.58
9.84
6.25
1.59
-4.07
-10.42
-16.96
-23.16
-28.68
-33.51
-38.03
-42.85
-48.73
-56.16
-65.13
-74.82
-83.56
-89.17
-89.51
-83.23
-70.27
-51.96
-30.63
-8.92
10.95
27.69
40.89
50.79
57.80
62.27
64.42
64.48
62.79
59.91
56.47
53.02
49.78
46.71
43.57
40.19
36.66
33.31
30.57
28.63
27.28
25.79
23.25
18.91
12.58
4.66
-3.93
-12.14
-19.17
-24.68
-28.93
-32.53
-36.36
-41.27
-47.92
-56.49
-66.39
-76.14
-83.57
-86.36
-82.77
-72.32
-55.98
-35.88
-14.60
5.60
23.20
37.54
48.52
56.31
61.10
63.13
62.76
60.59
57.40
53.96
50.84
48.27
46.07
43.81
41.03
37.49
33.32
28.91
24.73
21.10
17.95
14.83
11.12
6.26
0.04
-7.26
-14.97
-22.31
-28.67
-33.89
-38.33
-42.78
-48.16
-55.21
-64.10
-74.21
-84.09
-91.73
-94.97
-92.21
-82.80
-67.36
-47.61
-25.91
-4.59
14.47
30.13
41.93
49.91
54.35
55.70
54.53
51.57
47.68
43.69
40.22
37.54
35.44
33.52
31.36
28.74
25.80
22.85
20.13
17.61
14.90
11.42
6.68
0.53
-6.72
-14.46
-21.96
-28.76
-34.70
-40.01
-45.24
-51.10
-58.21
-66.87
-76.73
-86.60
-94.54
-98.29
-96.02
-86.93
-71.62
-51.90
-30.19
-8.79
10.66
27.28
40.76
51.00
57.98
61.69
62.40
60.73
57.67
54.24
51.32
49.28
48.01
47.00
45.66
43.60
40.71
37.21
33.48
29.78
26.16
22.36
17.90
12.38
5.58
-2.31
-10.79
-19.19
-26.92
-33.65
-39.44
-44.68
-50.04
-56.25
-63.90
-73.17
-83.50
-93.42
-100.80
-103.26
-99.00
-87.45
-69.52
-47.37
-23.68
-0.90
19.30
36.19
49.77
60.35
68.23
73.55
76.41
77.03
75.83
73.52
70.83
68.36
66.33
64.56
62.62
60.07
56.75
52.77
48.48
44.23
40.18
36.21
31.99
27.15
21.41
14.74
7.32
-0.47
-8.23
-15.60
-22.36
-28.52
-34.31
-40.15
-46.62
-54.29
-63.54
-74.22
-85.43
-95.44
-101.97
-102.74
-96.31
-82.53
-62.74
-39.38
-15.27
7.13
26.31
41.76
53.72
62.74
69.30
73.63
75.79
75.91
74.30
71.57
68.45
65.61
63.42
61.88
60.66
59.32
57.44
54.81
51.41
47.39
42.95
38.27
33.43
28.35
22.84
16.69
9.85
2.39
-5.34
-12.89
-19.83
-25.99
-31.43
-36.57
-41.98
-48.32
-56.13
-65.59
-76.33
-87.15
-96.12
-100.93
-99.52
-90.84
-75.30
-54.69
-31.67
-8.91
11.51
28.56
41.94
51.86
58.57
62.30
63.28
62.00
59.18
55.70
52.35
49.60
47.49
45.66
43.68
41.17
38.04
34.50
30.89
27.45
24.18
20.79
16.75
11.54
4.90
-3.03
-11.71
-20.38
-28.32
-35.10
-40.72
-45.63
-50.54
-56.25
-63.30
-71.70
-80.71
-88.81
-94.00
-94.31
-88.42
-76.22
-58.83
-38.32
-17.05
2.98
20.52
35.01
46.38
54.69
60.01
62.46
62.41
60.54
57.74
54.85
52.34
50.21
48.10
45.56
42.37
38.67
34.87
31.38
28.32
25.41
22.05
17.64
11.77
4.52
-3.58
-11.78
-19.39
-25.99
-31.71
-37.08
-42.91
-50.03
-58.91
-69.42
-80.59
-90.60
-97.12
-97.92
-91.56
-77.95
-58.43
-35.41
-11.66
10.46
29.37
44.44
55.64
63.25
67.63
69.15
68.38
66.02
62.94
59.91
57.43
55.55
53.91
51.98
49.26
45.68
41.45
37.05
32.81
28.78
24.58
19.63
13.41
5.75
-2.98
-12.02
-20.48
-27.71
-33.53
-38.31
-42.89
-48.26
-55.28
-64.33
-75.06
-86.20
-95.69
-101.03
-100.02
-91.43
-75.53
-54.06
-29.75
-5.50
16.44
34.82
49.35
60.29
67.99
72.71
74.56
73.84
71.14
67.35
63.42
59.99
57.26
54.94
52.48
49.46
45.85
41.93
38.22
35.06
32.34
29.51
25.80
20.57
13.65
5.51
-2.98
-10.82
-17.35
-22.45
-26.57
-30.61
-35.60
-42.44
-51.53
-62.55
-74.22
-84.42
-90.58
-90.43
-82.77
-67.89
-47.64
-24.76
-2.09
18.24
35.05
48.11
57.69
64.16
67.81
68.84
67.58
64.59
60.62
56.47
52.70
49.49
46.62
43.72
40.47
36.84
33.13
29.75
26.84
24.19
21.14
16.97
11.23
4.00
-4.05
-11.98
-18.94
-24.58
-29.11
-33.23
-37.85
-43.78
-51.53
-61.03
-71.46
-81.19
-88.00
-89.65
-84.53
-72.33
-54.25
-32.73
-10.67
9.40
25.87
38.27
46.84
52.20
54.85
55.21
53.57
50.33
46.00
41.15
36.27
31.70
27.59
24.01
20.93
18.32
16.10
14.10
11.95
9.24
5.55
0.66
-5.38
-12.24
-19.38
-26.24
-32.43
-37.92
-43.07
-48.59
-55.25
-63.55
-73.25
-83.14
-91.13
-94.72
-91.83
-81.52
-64.49
-42.91
-19.73
2.21
20.96
35.68
46.44
53.75
58.11
59.84
59.15
56.42
52.25
47.43
42.68
38.46
34.86
31.70
28.72
25.78
22.89
20.07
17.20
13.93
9.81
4.47
-2.13
-9.62
-17.36
-24.70
-31.23
-36.93
-42.23
-47.86
-54.53
-62.70
-72.25
-82.18
-90.64
-95.25
-93.83
-85.11
-69.33
-48.23
-24.56
-1.26
19.38
36.12
48.75
57.70
63.59
66.92
67.95
66.90
64.16
60.36
56.28
52.55
49.48
46.85
44.22
41.17
37.57
33.72
30.15
27.18
24.66
21.94
18.13
12.54
5.06
-3.67
-12.60
-20.65
-27.24
-32.45
-36.99
-41.91
-48.23
-56.61
-66.98
-78.40
-89.00
-96.33
-97.96
-92.23
-78.94
-59.47
-36.46
-12.92
8.65
26.78
41.13
52.06
60.13
65.72
68.98
69.98
68.94
66.39
63.02
59.56
56.48
53.84
51.38
48.65
45.37
41.54
37.54
33.84
30.73
28.10
25.41
21.86
16.80
10.07
2.06
-6.39
-14.34
-21.11
-26.53
-30.98
-35.20
-40.15
-46.63
-55.04
-65.13
-75.81
-85.22
-91.05
-91.13
-84.19
-70.28
-50.89
-28.49
-5.83
14.84
32.18
45.74
55.67
62.31
65.98
66.92
65.57
62.58
58.90
55.44
52.83
51.17
50.06
48.83
46.83
43.81
39.96
35.84
31.97
28.66
25.77
22.79
19.02
13.93
7.43
-0.12
-7.98
-15.35
-21.67
-26.83
-31.15
-35.29
-40.03
-46.05
-53.74
-63.04
-73.25
-82.97
-90.22
-92.88
-89.23
-78.67
-61.94
-41.03
-18.62
2.74
21.22
35.97
46.91
54.36
58.64
60.00
58.75
55.48
51.09
46.58
42.75
39.86
37.67
35.62
33.20
30.18
26.78
23.47
20.68
18.57
16.81
14.77
11.65
6.88
0.36
-7.52
-15.89
-23.82
-30.64
-36.18
-40.82
-45.34
-50.62
-57.35
-65.69
-75.16
-84.51
-91.85
-95.03
-92.23
-82.60
-66.58
-45.97
-23.38
-1.55
17.43
32.49
43.51
50.96
55.39
57.22
56.77
54.40
50.73
46.53
42.54
39.15
36.37
33.83
31.16
28.11
24.77
21.39
18.21
15.26
12.26
8.74
4.24
-1.48
-8.27
-15.57
-22.63
-28.77
-33.69
-37.68
-41.56
-46.40
-53.07
-61.84
-72.06
-82.12
-89.79
-92.75
-89.24
-78.72
-61.98
-41.05
-18.58
2.91
21.55
36.42
47.43
54.91
59.27
60.82
59.88
56.93
52.72
48.10
43.89
40.50
37.84
35.45
32.79
29.57
25.90
22.16
18.71
15.64
12.67
9.22
4.77
-0.91
-7.58
-14.61
-21.25
-26.93
-31.54
-35.44
-39.39
-44.29
-50.92
-59.64
-70.05
-80.91
-90.14
-95.27
-94.09
-85.43
-69.57
-48.36
-24.60
-1.22
19.52
36.37
49.06
57.94
63.52
66.22
66.42
64.56
61.26
57.31
53.46
50.20
47.63
45.46
43.27
40.76
37.90
34.98
32.27
29.87
27.47
24.42
20.03
13.92
6.25
-2.35
-10.92
-18.63
-25.06
-30.31
-35.01
-40.10
-46.50
-54.78
-64.82
-75.60
-85.22
-91.24
-91.44
-84.49
-70.52
-51.14
-28.89
-6.52
13.83
30.95
44.48
54.58
61.48
65.39
66.51
65.27
62.34
58.60
54.80
51.41
48.47
45.69
42.78
39.60
36.33
33.26
30.70
28.57
26.43
23.58
19.35
13.40
5.85
-2.64
-11.17
-18.81
-24.99
-29.63
-33.28
-36.93
-41.72
-48.56
-57.57
-67.92
-77.75
-84.58
-86.03
-80.63
-68.31
-50.50
-29.65
-8.45
10.92
27.22
40.03
49.47
55.80
59.19
59.82
58.06
54.57
50.28
46.06
42.50
39.69
37.35
35.00
32.28
29.04
25.42
21.63
17.76
13.66
8.96
3.37
-3.18
-10.42
-17.79
-24.73
-30.91
-36.34
-41.40
-46.67
-52.79
-60.12
-68.57
-77.35
-84.94
-89.37
-88.74
-81.87
-68.82
-50.92
-30.43
-9.78
9.04
24.88
37.36
46.64
53.05
56.84
58.29
57.73
55.62
52.57
49.18
45.86
42.80
39.97
37.25
34.60
32.06
29.70
27.45
24.99
21.81
17.39
11.48
4.27
-3.63
-11.41
-18.39
-24.28
-29.24
-33.81
-38.75
-44.79
-52.44
-61.71
-71.88
-81.39
-87.99
-89.42
-84.09
-71.78
-53.80
-32.59
-10.95
8.84
25.46
38.61
48.61
55.94
60.96
63.84
64.71
63.81
61.60
58.64
55.45
52.38
49.46
46.53
43.40
40.03
36.58
33.32
30.45
27.80
24.82
20.78
15.06
7.56
-1.24
-10.39
-18.90
-26.11
-31.96
-36.95
-41.95
-47.85
-55.29
-64.31
-74.20
-83.43
-89.87
-91.36
-86.31
-74.38
-56.57
-35.06
-12.46
8.88
27.44
42.54
54.23
62.80
68.55
71.67
72.39
71.12
68.45
65.12
61.71
58.50
55.37
51.99
48.03
43.48
38.68
34.18
30.44
27.51
24.96
21.99
17.83
12.06
4.86
-3.08
-10.86
-17.68
-23.24
-27.79
-32.01
-36.81
-42.95
-50.78
-60.03
-69.65
-77.90
-82.65
-81.96
-74.69
-60.97
-42.28
-21.03
0.16
19.12
34.60
46.24
54.32
59.34
61.79
62.04
60.44
57.47
53.69
49.71
46.00
42.78
39.97
37.35
34.64
31.75
28.71
25.65
22.60
19.39
15.67
11.10
5.52
-0.91
-7.72
-14.30
-20.17
-25.09
-29.24
-33.14
-37.47
-42.94
-49.98
-58.44
-67.41
-75.22
-79.82
-79.27
-72.52
-59.77
-42.57
-23.32
-4.56
11.68
24.39
33.47
39.39
42.77
44.04
43.45
41.18
37.61
33.33
29.04
25.34
22.55
20.61
19.23
18.06
16.85
15.51
13.95
11.96
9.25
5.52
0.65
-5.17
-11.45
-17.62
-23.20
-28.07
-32.50
-37.02
-42.34
-48.91
-56.80
-65.38
-73.31
-78.76
-79.84
-75.21
-64.56
-48.81
-29.86
-10.05
8.49
24.26
36.58
45.43
51.11
54.00
54.41
52.68
49.28
44.81
39.95
35.29
31.19
27.72
24.78
22.19
19.86
17.85
16.13
14.52
12.58
9.81
5.77
0.45
-5.81
-12.38
-18.58
-24.04
-28.78
-33.18
-37.87
-43.47
-50.38
-58.48
-66.99
-74.43
-78.88
-78.55
-72.30
-60.17
-43.40
-24.07
-4.50
13.33
28.21
39.68
47.80
52.97
55.60
56.13
55.01
52.73
49.76
46.54
43.32
40.19
37.11
33.94
30.62
27.21
23.88
20.77
17.87
14.93
11.49
7.14
1.70
-4.68
-11.44
-17.96
-23.70
-28.48
-32.61
-36.77
-41.75
-48.18
-56.10
-64.70
-72.41
-77.15
-76.96
-70.67
-58.31
-41.20
-21.53
-1.68
16.39
31.44
43.04
51.26
56.42
58.85
58.89
56.95
53.64
49.62
45.56
41.89
38.76
36.00
33.38
30.72
27.98
25.30
22.73
20.15
17.26
13.60
8.85
3.00
-3.59
-10.33
-16.62
-22.08
-26.67
-30.71
-34.80
-39.66
-45.85
-53.51
-62.09
-70.21
-75.92
-77.21
-72.63
-61.90
-46.07
-27.22
-7.78
10.16
25.33
37.26
46.04
51.92
55.07
55.63
53.88
50.37
45.90
41.36
37.40
34.29
31.89
29.79
27.60
25.07
22.19
19.08
15.85
12.44
8.60
4.07
-1.36
-7.59
-14.22
-20.70
-26.55
-31.56
-35.95
-40.32
-45.39
-51.80
-59.61
-68.15
-75.91
-80.93
-81.24
-75.59
-63.91
-47.44
-28.38
-9.21
8.02
22.06
32.55
39.72
43.99
45.74
45.33
43.15
39.74
35.75
31.72
27.98
24.58
21.38
18.30
15.37
12.76
10.63
8.91
7.29
5.29
2.49
-1.28
-5.93
-11.12
-16.48
-21.73
-26.77
-31.77
-37.06
-43.15
-50.47
-58.98
-67.93
-75.74
-80.27
-79.46
-72.12
-58.49
-40.22
-19.87
0.01
17.53
31.86
42.96
51.14
56.62
59.40
59.50
57.20
53.21
48.54
44.16
40.58
37.83
35.54
33.25
30.81
28.31
25.99
23.89
21.78
19.10
15.30
10.11
3.74
-3.25
-10.14
-16.45
-22.06
-27.26
-32.62
-38.80
-46.32
-55.27
-65.15
-74.66
-81.88
-84.65
-81.31
-71.26
-55.29
-35.41
-14.18
6.03
23.63
37.90
48.83
56.70
61.82
64.41
64.74
63.17
60.33
56.93
53.58
50.57
47.82
45.03
41.88
38.26
34.41
30.77
27.70
25.22
22.86
19.87
15.58
9.74
2.68
-4.84
-11.97
-18.09
-23.06
-27.23
-31.25
-35.94
-42.02
-49.87
-59.25
-69.14
-77.72
-82.78
-82.34
-75.30
-61.96
-43.88
-23.46
-3.18
15.03
30.12
41.86
50.52
56.53
60.24
61.89
61.72
60.12
57.68
54.98
52.47
50.26
48.12
45.67
42.65
39.15
35.58
32.41
29.83
27.61
25.09
21.53
16.41
9.79
2.22
-5.47
-12.46
-18.26
-22.82
-26.53
-30.11
-34.44
-40.24
-47.86
-56.98
-66.51
-74.65
-79.29
-78.55
-71.46
-58.31
-40.62
-20.68
-0.91
16.81
31.41
42.62
50.61
55.65
57.94
57.67
55.18
51.11
46.31
41.65
37.68
34.52
31.86
29.26
26.41
23.33
20.25
17.54
15.26
13.18
10.77
7.46
2.93
-2.76
-9.18
-15.71
-21.79
-27.15
-31.81
-36.14
-40.69
-46.05
-52.64
-60.41
-68.67
-75.98
-80.47
-80.27
-74.21
-62.32
-45.87
-26.99
-8.06
8.99
23.10
33.96
41.73
46.72
49.11
49.05
46.83
42.99
38.33
33.65
29.50
26.04
23.09
20.39
17.84
15.50
13.50
11.86
10.28
8.22
5.13
0.75
-4.78
-10.90
-16.96
-22.48
-27.31
-31.71
-36.19
-41.31
-47.45
-54.73
-62.71
-70.37
-76.18
-78.37
-75.40
-66.59
-52.37
-34.36
-14.85
3.87
20.12
33.14
42.94
49.87
54.32
56.47
56.45
54.51
51.20
47.21
43.24
39.68
36.56
33.67
30.75
27.71
24.70
21.89
19.32
16.74
13.68
9.66
4.46
-1.73
-8.40
-14.91
-20.75
-25.73
-30.08
-34.33
-39.18
-45.31
-53.10
-62.39
-72.27
-81.01
-86.47
-86.62
-80.28
-67.59
-50.03
-29.93
-9.80
8.46
23.81
36.00
45.26
51.87
56.00
57.79
57.51
55.64
52.84
49.74
46.75
43.91
41.01
37.80
34.26
30.67
27.46
24.94
23.02
21.13
18.44
14.23
8.27
0.96
-6.84
-14.20
-20.48
-25.52
-29.65
-33.56
-38.03
-43.79
-51.18
-59.92
-68.91
-76.31
-79.91
-77.88
-69.35
-54.88
-36.24
-15.88
3.84
21.25
35.54
46.57
54.52
59.63
62.11
62.19
60.23
56.86
52.75
48.53
44.56
40.94
37.55
34.29
31.13
28.20
25.63
23.39
21.15
18.40
14.60
9.46
3.09
-4.00
-11.06
-17.43
-22.71
-26.97
-30.67
-34.62
-39.71
-46.60
-55.39
-65.32
-74.79
-81.63
-83.73
-79.69
-69.36
-53.88
-35.32
-16.07
1.90
17.36
29.83
39.30
45.91
49.77
51.00
49.88
46.96
43.01
38.81
34.94
31.58
28.61
25.81
22.98
20.16
17.48
15.07
12.83
10.45
7.42
3.29
-2.14
-8.68
-15.78
-22.72
-28.89
-34.07
-38.54
-42.99
-48.23
-54.84
-62.85
-71.51
-79.36
-84.48
-85.01
-79.67
-68.26
-51.72
-31.93
-11.20
8.36
25.29
38.89
49.06
56.02
60.04
61.43
60.62
58.17
54.82
51.29
48.09
45.40
43.06
40.71
38.03
34.93
31.58
28.27
25.15
22.06
18.56
14.12
8.44
1.66
-5.65
-12.71
-18.93
-24.15
-28.73
-33.38
-38.86
-45.73
-54.17
-63.80
-73.58
-81.80
-86.39
-85.45
-77.91
-63.95
-45.15
-23.88
-2.67
16.57
32.77
45.65
55.36
62.06
65.86
66.90
65.54
62.50
58.71
55.07
52.11
49.86
47.92
45.70
42.81
39.24
35.39
31.79
28.75
26.13
23.39
19.84
14.98
8.76
1.65
-5.62
-12.35
-18.14
-23.04
-27.51
-32.29
-38.14
-45.60
-54.66
-64.58
-73.82
-80.25
-81.79
-77.01
-65.74
-49.11
-29.26
-8.67
10.58
27.16
40.62
50.99
58.44
63.09
65.04
64.53
62.11
58.62
54.95
51.75
49.19
47.01
44.75
42.02
38.80
35.36
32.15
29.39
26.93
24.22
20.56
15.43
8.72
0.85
-7.38
-15.15
-21.81
-27.18
-31.55
-35.53
-39.91
-45.44
-52.51
-60.95
-69.76
-77.19
-81.12
-79.61
-71.69
-57.73
-39.43
-19.23
0.40
17.64
31.62
42.21
49.72
54.41
56.45
55.93
53.19
48.83
43.74
38.78
34.49
30.90
27.66
24.30
20.61
16.80
13.29
10.40
8.04
5.60
2.29
-2.54
-8.96
-16.45
-24.11
-31.06
-36.74
-41.06
-44.33
-47.12
-50.12
-53.95
-58.96
-64.96
-70.96
-75.24
-75.78
-70.96
-60.21
-44.39
-25.58
-6.30
11.24
25.74
36.84
44.79
50.00
52.79
53.41
52.20
49.72
46.68
43.67
40.97
38.53
36.05
33.30
30.28
27.30
24.69
22.66
21.00
19.17
16.45
12.32
6.68
-0.10
-7.28
-14.12
-20.13
-25.22
-29.73
-34.27
-39.55
-46.10
-54.10
-63.14
-72.07
-79.13
-82.27
-79.83
-71.06
-56.53
-37.94
-17.65
2.06
19.55
34.03
45.43
53.99
59.99
63.56
64.82
64.04
61.78
58.80
55.81
53.30
51.39
49.85
48.29
46.45
44.26
41.90
39.59
37.34
34.93
31.90
27.82
22.50
16.17
9.42
3.05
-2.26
-6.22
-9.07
-11.51
-14.44
-18.56
-24.09
-30.69
-37.56
-43.82
-48.81
-52.37
-54.85
-56.99
-59.60
-63.41
-68.79
-75.68
-83.34
-90.43
-95.01
-95.10
-89.17
-76.80
-58.89
-37.51
-15.30
5.37
22.91
36.71
46.86
53.77
57.84
59.39
58.77
56.50
53.28
49.77
46.46
43.49
40.73
37.94
34.99
31.99
29.17
26.71
24.59
22.45
19.71
15.84
10.60
4.19
-2.80
-9.63
-15.75
-21.04
-25.83
-30.75
-36.49
-43.57
-52.10
-61.59
-70.87
-78.24
-81.76
-79.81
-71.60
-57.58
-39.34
-19.25
0.25
17.29
30.88
40.91
47.79
52.06
54.17
54.46
53.18
50.74
47.63
44.29
41.06
38.00
35.00
31.93
28.80
25.74
22.92
20.31
17.63
14.40
10.14
4.60
-2.08
-9.45
-16.85
-23.75
-29.82
-35.17
-40.28
-45.89
-52.69
-60.95
-70.15
-78.84
-84.90
-86.11
-80.95
-69.16
-51.94
-31.54
-10.62
8.52
24.45
36.66
45.28
50.71
53.34
53.49
51.53
48.04
43.75
39.41
35.52
32.17
29.19
26.23
23.17
20.01
16.89
13.84
10.68
7.04
2.61
-2.72
-8.78
-15.18
-21.50
-27.45
-32.97
-38.24
-43.68
-49.88
-57.35
-66.32
-76.31
-85.93
-93.07
-95.40
-91.16
-79.89
-62.60
-41.54
-19.40
1.46
19.54
34.24
45.63
53.93
59.37
62.08
62.28
60.43
57.20
53.35
49.50
45.99
42.90
40.16
37.65
35.31
33.11
30.94
28.55
25.56
21.60
16.43
10.08
2.90
-4.57
-11.76
-18.33
-24.21
-29.69
-35.36
-41.96
-50.16
-60.27
-71.90
-83.78
-93.76
-99.29
