1638207635.00
64.000000
-0.00
-0.00
-0.00
-0.00
-0.00
-0.00
-0.00
-0.00
-0.00
-0.00
0.00
0.01
0.01
-0.00
-0.03
-0.05
-0.05
0.00
0.13
0.36
0.66
1.01
1.37
1.72
2.06
2.40
2.79
3.24
3.80
4.43
5.08
5.71
6.29
6.84
7.42
8.10
8.94
10.03
11.30
12.63
13.92
15.10
16.22
17.44
18.97
20.97
23.66
26.83
30.23
33.57
36.68
39.65
42.80
46.58
51.31
57.38
64.44
71.98
79.45
86.51
93.24
100.17
108.01
117.32
128.65
141.51
155.12
168.61
181.45
193.69
206.00
219.76
233.70
250.11
269.61
292.30
317.00
340.82
359.44
368.25
363.92
345.62
315.73
278.11
237.09
195.89
156.05
117.79
80.98
45.84
13.10
-16.02
-41.26
-62.87
-81.56
-98.02
-112.54
-124.91
-134.64
-141.37
-145.03
-146.30
-146.21
-145.51
-144.73
-143.96
-142.86
-140.91
-137.76
-133.24
-127.72
-121.73
-115.82
-110.38
-105.53
-101.13
-96.91
-92.69
-88.40
-84.24
-80.44
-77.28
-74.94
-73.47
-72.76
-72.68
-73.09
-73.85
-74.84
-75.92
-76.83
-77.25
-76.94
-75.82
-74.07
-72.17
-70.80
-70.62
-71.90
-74.60
-78.27
-82.26
-85.99
-89.16
-91.83
-94.24
-96.64
-98.96
-100.67
-101.01
-99.31
-95.38
-89.78
-83.95
-79.59
-78.10
-80.05
-84.95
-91.50
-98.18
-103.88
-108.26
-111.96
-116.01
-121.46
-129.46
-141.02
-156.65
-175.49
-194.54
-208.78
-213.03
-204.83
-186.29
-163.73
-144.49
-133.92
-133.19
-139.14
-146.81
-152.11
-153.63
-151.89
-148.23
-143.38
-136.92
-127.89
-115.44
-99.64
-80.86
-60.34
-39.61
-20.67
-5.04
6.39
14.11
19.78
24.81
30.65
37.82
46.34
55.34
62.98
67.16
65.74
57.77
43.57
25.30
6.15
-11.66
-27.67
-42.74
-57.92
-73.43
-87.05
-95.65
-96.75
-90.28
-78.79
-66.04
-55.43
-47.71
-42.17
-36.44
-27.92
-13.95
7.64
38.26
76.94
118.98
157.05
183.40
194.17
191.49
182.10
174.13
172.02
174.70
176.30
169.51
149.50
116.67
76.19
36.49
6.00
-10.55
-13.46
-8.55
-4.29
-8.50
-24.87
-52.01
-84.70
-116.33
-142.01
-158.94
-166.19
-163.58
-151.79
-132.88
-110.58
-89.60
-73.40
-62.49
-54.75
-46.59
-35.83
-22.30
-7.72
5.94
18.01
29.52
42.03
56.60
73.04
89.77
104.19
113.50
114.87
106.47
88.69
64.73
40.69
23.15
16.34
20.35
30.93
42.50
51.14
56.18
60.32
66.28
75.24
85.30
93.26
97.09
97.29
97.24
99.82
106.07
113.93
120.13
122.31
120.12
115.02
108.23
99.52
87.11
69.78
48.72
27.95
12.96
7.01
8.76
12.54
10.98
-0.73
-21.92
-46.94
-67.55
-76.08
-69.10
-47.26
-15.59
18.02
44.90
58.74
57.46
43.90
25.53
11.31
8.21
18.45
38.68
61.95
80.41
88.63
85.36
73.74
58.62
44.52
33.60
25.08
17.70
10.87
6.23
6.41
12.27
21.20
26.84
22.14
3.54
-25.54
-56.00
-76.74
-80.05
-65.18
-38.49
-10.66
8.15
11.89
0.63
-20.21
-42.58
-58.43
-62.95
-54.83
-36.89
-14.43
5.50
15.75
10.93
-11.69
-49.91
-97.77
-146.36
-186.63
-211.91
-219.45
-211.14
-191.11
-165.04
-138.25
-115.55
-100.17
-92.81
-90.11
-85.74
-72.93
-47.10
-9.20
34.69
74.83
102.06
111.27
103.34
85.92
69.65
64.88
75.91
99.55
126.96
148.02
157.40
156.54
152.54
152.86
160.76
173.58
185.89
193.49
195.57
194.55
192.39
189.48
184.04
174.58
160.81
143.38
123.08
99.51
72.06
41.77
12.19
-12.18
-28.65
-38.05
-45.11
-55.42
-72.32
-94.49
-116.94
-134.33
-143.59
-145.34
-142.56
-138.16
-133.35
-127.42
-118.57
-105.87
-90.59
-75.80
-64.95
-59.39
-57.91
-56.54
-51.18
-39.49
-21.90
-1.76
16.59
28.52
29.89
18.05
-6.49
-39.23
-72.28
-96.26
-104.29
-94.81
-72.79
-47.16
-26.59
-16.06
-14.57
-17.04
-17.09
-10.01
5.81
28.84
55.29
80.69
100.15
109.73
107.66
95.82
78.86
62.97
53.16
51.53
57.53
68.57
81.84
93.94
101.30
99.19
83.50
52.62
9.23
-39.26
-83.37
-114.72
-130.49
-133.17
-128.56
-122.74
-118.69
-116.64
-115.15
-112.73
-108.34
-100.97
-89.34
-72.67
-51.17
-27.34
-5.16
11.85
22.49
29.27
36.88
49.59
68.55
89.94
107.55
115.32
111.13
96.84
76.74
55.03
34.08
14.51
-3.57
-18.31
-27.31
-29.22
-25.66
-21.67
-22.55
-30.92
-44.02
-55.45
-59.54
-54.68
-43.87
-31.82
-20.27
-5.96
17.22
53.29
99.78
146.42
179.73
189.49
174.54
142.64
106.29
75.73
54.86
41.18
28.55
12.55
-7.27
-27.30
-43.24
-52.78
-57.10
-59.22
-61.70
-64.57
-65.51
-62.28
-53.57
-39.95
-23.55
-6.71
7.69
17.10
19.77
15.76
7.29
-1.79
-7.73
-9.54
-9.23
-11.02
-17.97
-29.17
-39.54
-42.77
-36.28
-23.33
-12.22
-10.97
-22.69
-43.58
-65.27
-79.84
-83.21
-76.35
-63.07
-46.60
-28.35
-8.18
13.08
32.63
45.63
48.31
40.46
26.42
13.60
9.02
16.28
33.97
56.60
76.01
84.69
77.76
55.23
21.88
-13.75
-42.03
-55.85
-52.52
-34.88
-8.83
18.49
42.08
60.06
72.60
81.39
87.47
91.14
91.94
89.51
84.17
76.12
65.47
51.06
30.89
3.80
-28.99
-63.54
-94.03
-115.08
-124.68
-124.05
-117.23
-107.78
-98.00
-87.68
-75.81
-61.71
-45.39
-27.68
-8.95
10.41
30.53
50.12
67.10
78.81
83.03
78.58
64.96
42.98
14.27
-18.14
-49.99
-77.12
-96.15
-106.17
-108.18
-104.22
-95.60
-83.49
-69.24
-55.79
-48.07
-50.05
-62.50
-80.40
-93.84
-91.78
-67.36
-22.03
35.07
90.53
132.35
153.87
155.35
141.48
118.88
93.99
72.34
58.74
56.11
64.10
78.72
93.14
100.15
95.40
79.57
57.02
33.89
15.12
3.17
-1.66
0.19
8.26
21.03
36.07
50.11
60.22
65.24
65.54
61.78
53.20
37.66
13.63
-17.29
-49.66
-75.77
-89.17
-88.29
-76.03
-58.12
-39.76
-23.88
-11.35
-2.27
3.03
4.25
2.40
1.25
5.77
19.52
42.37
69.23
92.89
106.58
106.86
93.62
68.84
35.48
-2.54
-39.98
-70.69
-88.64
-90.30
-76.50
-53.08
-29.00
-13.71
-13.86
-30.77
-60.59
-95.09
-124.27
-138.91
-133.62
-109.33
-73.69
-39.14
-17.28
-14.38
-28.63
-51.74
-73.80
-87.11
-89.41
-82.41
-70.14
-56.93
-46.08
-39.71
-38.05
-39.29
-39.10
-32.24
-14.21
15.64
53.43
91.62
122.62
142.20
149.93
148.27
139.26
123.20
99.33
68.52
35.94
10.06
0.43
11.86
40.81
74.69
96.76
93.65
61.83
10.54
-43.16
-81.84
-95.61
-85.76
-61.98
-37.17
-20.37
-13.94
-13.61
-12.61
-4.97
11.46
34.33
58.67
78.64
90.04
90.66
81.41
65.79
49.04
36.49
31.48
34.21
40.10
42.08
33.10
10.32
-23.12
-58.82
-87.25
-102.98
-106.59
-104.76
-105.79
-115.58
-135.67
-163.36
-194.47
-224.22
-247.85
-259.01
-250.50
-216.84
-158.33
-84.29
-11.28
42.70
66.28
59.89
35.99
12.83
5.08
16.82
40.33
61.87
69.41
60.06
39.57
17.74
1.02
-10.86
-22.91
-39.40
-58.58
-72.62
-71.52
-50.01
-10.73
36.89
80.59
111.36
125.65
124.95
113.29
95.52
76.34
59.58
48.69
45.74
51.19
63.13
78.08
92.66
104.66
113.54
120.61
127.87
135.95
144.02
149.61
150.53
145.71
136.21
124.87
114.34
105.85
97.91
87.68
72.65
52.65
30.93
12.29
1.09
-1.19
3.27
9.10
10.33
2.94
-15.19
-43.42
-79.26
-118.88
-156.93
-187.41
-204.30
-204.11
-187.87
-161.30
-132.23
-107.34
-89.45
-77.12
-67.52
-59.23
-53.19
-51.28
-53.59
-56.77
-55.65
-46.87
-30.73
-11.49
5.86
18.77
28.88
39.87
54.00
69.79
82.01
85.67
78.60
63.39
45.43
29.06
15.08
-0.00
-20.41
-48.27
-80.57
-109.61
-125.29
-119.22
-88.88
-38.28
22.32
79.99
122.65
142.23
136.93
110.88
73.35
35.70
9.90
5.19
25.79
68.99
124.91
178.94
216.67
229.26
216.39
185.98
149.16
114.91
86.71
63.09
41.19
19.39
-0.39
-15.12
-23.37
-27.60
-33.10
-44.16
-61.22
-79.67
-92.26
-92.82
-80.04
-58.15
-34.90
-18.55
-14.24
-23.67
-45.48
-77.35
-116.94
-161.33
-206.38
-246.91
-276.96
-291.48
-288.47
-269.32
-238.35
-202.01
-166.71
-137.35
-115.13
-97.69
-79.90
-56.96
-27.59
4.78
33.22
51.89
60.04
62.78
68.65
83.81
107.78
132.59
147.22
143.10
119.02
81.53
41.47
8.28
-13.48
-25.23
-31.61
-37.15
-43.59
-49.18
-49.78
-41.54
-23.14
2.91
30.84
53.76
67.09
70.16
66.62
62.99
65.22
75.86
92.55
109.35
120.59
123.98
122.06
120.07
122.45
129.78
138.48
143.10
139.14
125.94
107.53
90.59
81.10
81.89
89.97
98.13
97.61
81.83
50.38
8.89
-32.66
-64.40
-80.59
-82.34
-76.30
-71.06
-73.44
-85.25
-103.97
-124.31
-141.39
-152.59
-158.57
-162.13
-165.78
-170.11
-172.55
-168.87
-155.36
-131.46
-101.03
-71.69
-51.99
-47.39
-58.97
-82.30
-110.66
-137.33
-158.14
-171.58
-176.80
-173.13
-159.63
-137.22
-108.95
-79.92
-54.06
-30.36
-3.34
35.02
88.63
154.40
221.32
276.14
309.43
319.46
312.07
295.77
277.74
259.98
241.08
218.06
189.63
157.43
125.45
98.70
80.29
70.15
64.92
59.48
48.59
29.90
4.82
-22.11
-44.87
-59.48
-64.30
-60.21
-49.40
-33.65
-14.74
5.24
22.73
33.88
34.88
24.04
2.53
-25.66
-54.73
-79.46
-96.55
-106.20
-111.15
-115.11
-120.60
-127.51
-133.86
-136.27
-131.83
-119.33
-99.08
-72.74
-43.20
-14.11
10.68
27.61
35.08
34.13
28.13
21.56
17.44
15.75
14.28
9.41
-1.73
-19.50
-42.35
-67.25
-90.28
-107.54
-115.62
-112.27
-96.80
-70.38
-36.22
1.33
37.23
68.33
93.68
114.33
132.20
147.41
158.09
160.65
152.73
134.71
110.59
85.95
64.81
47.81
32.24
14.97
-4.59
-23.96
-39.17
-47.62
-50.18
-50.24
-51.31
-55.01
-60.06
-63.64
-62.84
-56.32
-44.92
-30.49
-15.27
-0.79
11.49
20.26
24.38
22.80
15.79
5.15
-5.56
-12.96
-15.11
-12.20
-5.96
2.07
11.88
24.69
41.20
60.59
80.67
99.37
115.94
130.67
143.23
150.67
148.16
131.22
98.53
53.42
2.48
-46.78
-89.36
-122.30
-143.94
-152.64
-147.20
-128.86
-101.90
-73.16
-48.53
-31.00
-19.44
-10.99
-4.09
0.23
-1.20
-10.94
-29.34
-53.26
-77.95
-98.11
-109.10
-107.70
-92.34
-64.86
-29.95
4.49
30.13
41.55
39.30
29.94
22.67
25.61
40.86
65.03
90.48
109.53
117.30
112.86
98.91
79.43
58.81
39.60
22.64
6.73
-10.15
-29.28
-50.09
-69.84
-85.39
-93.76
-94.42
-89.51
-83.06
-79.37
-80.36
-85.03
-89.20
-87.59
-75.81
-52.90
-21.38
14.26
49.18
80.72
107.99
131.06
149.15
160.16
161.18
150.31
128.84
100.82
72.53
49.57
34.90
28.42
27.33
27.48
24.84
17.17
3.99
-12.55
-28.92
-41.15
-46.43
-44.59
-37.62
-28.82
-21.25
-17.50
-19.45
-27.93
-42.53
-59.96
-75.23
-82.63
-78.17
-62.33
-39.64
-17.26
-1.41
4.15
-1.05
-15.66
-38.18
-66.31
-96.58
-123.11
-138.02
-134.75
-111.63
-73.08
-28.38
12.71
43.82
63.69
75.54
83.94
91.82
99.15
103.92
104.27
99.41
90.15
77.93
63.84
48.34
31.37
13.50
-4.74
-22.36
-38.63
-52.09
-61.20
-64.74
-62.81
-58.12
-55.00
-57.85
-69.07
-87.09
-106.96
-122.71
-129.82
-126.79
-114.95
-97.18
-76.91
-56.62
-37.95
-22.35
-11.02
-4.42
-1.09
2.34
9.94
23.78
41.71
57.97
65.64
61.44
47.13
29.28
15.45
11.08
16.76
29.92
46.68
64.50
82.77
101.69
120.62
137.57
150.42
157.91
160.23
158.46
153.48
145.97
135.95
123.67
109.73
95.16
81.21
68.57
57.07
45.18
30.96
12.90
-8.75
-31.06
-49.70
-60.34
-61.08
-53.32
-41.40
-30.91
-27.06
-33.03
-49.88
-76.19
-108.01
-139.31
-163.65
-176.13
-174.70
-160.55
-137.09
-108.50
-79.13
-52.47
-30.67
-13.85
-0.73
10.36
20.35
28.11
31.94
31.11
27.39
24.37
24.91
29.05
32.95
32.10
24.71
14.46
8.69
13.31
29.11
50.67
70.10
82.09
86.83
88.67
92.44
99.94
108.58
113.53
110.20
96.48
73.42
43.95
12.22
-17.31
-40.85
-55.97
-62.44
-63.29
-63.57
-67.70
-77.81
-92.44
-107.48
-118.18
-120.57
-112.94
-96.32
-74.13
-51.44
-33.92
-24.62
-22.91
-24.47
-22.85
-12.88
6.50
30.99
53.44
66.55
66.82
55.05
35.09
12.34
-9.29
-27.07
-39.73
-46.55
-47.42
-42.47
-32.93
-21.57
-11.56
-7.12
-11.11
-23.90
-42.93
-62.31
-75.65
-78.43
-69.90
-53.14
-33.91
-17.23
-5.84
0.31
3.10
4.04
4.41
5.22
9.03
19.31
39.45
69.12
101.77
126.68
132.64
115.16
79.57
39.72
10.72
1.21
8.86
21.17
23.57
7.32
-25.46
-63.44
-92.26
-101.58
-89.25
-60.04
-21.83
19.14
59.33
97.19
130.63
155.65
168.12
165.69
150.08
126.40
101.33
80.52
66.78
59.83
56.11
50.39
36.81
11.61
-24.09
-63.69
-96.20
-111.20
-103.44
-77.16
-44.98
-22.07
-19.26
-37.58
-68.59
-98.64
-115.95
-114.51
-95.41
-64.45
-28.86
5.41
34.73
57.25
72.41
79.16
76.23
62.73
39.00
8.07
-24.88
-52.88
-70.10
-73.62
-65.10
-50.36
-36.52
-29.65
-31.80
-41.21
-52.79
-61.24
-63.00
-57.48
-47.47
-37.35
-32.16
-35.02
-46.65
-64.95
-85.19
-101.26
-106.61
-95.36
-64.79
-17.55
37.98
88.62
121.19
127.62
108.72
74.23
38.09
12.55
2.50
5.35
14.13
22.74
29.89
38.93
55.13
80.91
114.60
149.93
178.73
194.34
193.22
176.35
147.98
114.17
80.35
48.97
19.11
-12.89
-50.22
-92.79
-136.15
-172.88
-196.70
-205.72
-202.54
-192.58
-180.26
-167.22
-153.23
-137.70
-121.25
-105.57
-91.42
-78.22
-64.33
-49.08
-33.35
-19.60
-8.72
1.06
13.93
34.49
64.19
99.97
135.24
162.27
176.28
176.77
168.19
156.87
149.20
148.47
154.09
162.56
169.56
172.35
170.92
167.78
165.22
163.83
161.07
152.23
133.27
102.60
62.66
18.11
-25.51
-64.31
-96.56
-122.26
-141.93
-155.52
-162.84
-164.49
-161.95
-157.97
-155.00
-153.89
-152.30
-146.43
-132.50
-109.51
-80.24
-50.76
-27.24
-13.69
-9.69
-10.87
-11.56
-7.42
2.14
14.11
24.14
28.88
28.03
23.54
18.51
15.83
17.67
24.80
36.67
50.66
61.52
63.75
53.87
33.14
8.06
-12.50
-21.54
-18.10
-6.96
4.13
9.33
7.71
2.64
-1.40
-2.65
-3.32
-7.27
-17.03
-30.97
-44.17
-51.41
-50.81
-44.93
-39.43
-38.05
-40.32
-40.95
-33.01
-13.22
15.00
42.30
57.48
52.93
27.89
-11.77
-55.97
-94.15
-118.52
-125.53
-116.27
-95.67
-70.68
-47.43
-29.20
-15.58
-3.11
11.92
31.23
54.05
76.77
94.95
104.98
104.76
94.96
78.86
61.37
47.87
41.91
43.53
49.90
56.50
60.24
60.86
59.64
58.02
55.29
49.09
36.95
18.81
-2.92
-24.70
-43.63
-58.88
-71.03
-80.90
-88.00
-91.08
-88.86
-81.72
-72.95
-67.27
-69.35
-80.78
-98.31
-115.06
-122.60
-114.69
-90.60
-56.13
-20.71
6.46
21.38
25.77
25.04
24.05
24.22
22.95
16.59
3.63
-13.77
-29.78
-38.36
-35.78
-22.22
-1.65
20.93
40.82
55.59
64.34
67.52
66.26
62.14
57.10
52.72
50.02
49.30
50.15
51.89
54.68
59.87
68.76
81.47
94.79
103.41
101.91
88.83
67.43
45.28
29.73
23.83
24.80
25.39
18.66
1.89
-21.61
-44.68
-60.63
-66.61
-64.93
-60.45
-57.77
-58.88
-62.42
-65.78
-66.61
-64.13
-58.94
-51.77
-42.61
-31.01
-16.96
-1.69
11.69
20.29
22.08
17.92
10.28
2.07
-4.90
-10.51
-14.98
-18.46
-19.59
-16.94
-10.23
-1.36
5.90
7.98
3.19
-7.32
-21.34
-36.77
-52.74
-69.50
-86.32
-100.58
-108.23
-105.54
-91.19
-66.88
-36.21
-3.90
26.29
52.20
72.49
87.43
97.86
106.52
116.58
130.23
146.86
161.64
167.90
159.84
137.01
104.27
70.06
42.29
23.67
11.48
-1.27
-20.41
-47.63
-79.14
-107.32
-124.63
-126.95
-114.75
-91.81
-63.23
-33.57
-6.36
16.89
36.27
53.63
71.63
92.30
115.89
139.74
159.20
168.45
162.95
141.66
107.49
66.40
25.21
-10.47
-38.01
-57.71
-71.20
-80.59
-86.23
-87.34
-82.75
-72.58
-60.33
-52.55
-56.57
-76.88
-112.19
-154.62
-192.47
-215.26
-217.72
-201.71
-173.96
-142.36
-111.90
-83.81
-57.66
-33.43
-13.03
0.85
6.31
4.42
-1.38
-7.46
-12.19
-16.18
-20.50
-24.97
-27.09
-24.37
-16.96
-8.74
-6.22
-13.59
-29.67
-46.77
-54.12
-43.55
-13.93
28.27
72.90
111.41
140.27
160.47
174.67
184.56
190.15
191.59
190.52
190.25
193.40
200.25
207.34
209.23
201.66
184.15
160.40
136.35
117.31
104.96
97.15
88.88
74.97
52.86
23.61
-7.89
-35.51
-54.11
-61.97
-60.93
-55.00
-48.74
-46.04
-49.82
-62.35
-85.02
-117.00
-153.94
-188.16
-210.77
-214.69
-197.59
-163.20
-119.12
-74.61
-37.39
-11.93
1.31
5.39
5.40
6.61
11.79
20.78
30.00
34.79
32.23
23.30
13.21
8.69
15.09
33.06
58.28
83.56
100.94
104.70
91.37
60.80
15.06
-40.69
-98.26
-147.45
-177.87
-182.77
-160.99
-118.60
-66.73
-18.41
16.15
31.56
28.25
10.75
-14.87
-42.51
-67.32
-84.79
-91.10
-83.63
-62.49
-31.72
1.85
29.60
45.10
46.53
37.26
24.10
13.32
8.24
7.01
5.15
-2.41
-18.52
-42.26
-70.02
-95.30
-111.61
-113.15
-97.53
-66.59
-26.47
14.06
46.40
64.75
67.95
58.71
42.56
25.26
11.84
6.06
10.17
25.29
50.40
82.36
114.88
139.86
150.02
141.52
115.70
79.11
40.82
8.71
-13.11
-24.77
-28.84
-27.44
-21.74
-11.40
2.81
18.38
31.27
37.68
36.20
28.28
17.30
6.04
-4.48
-14.82
-25.92
-38.13
-50.39
-60.50
-66.57
-67.57
-64.18
-57.94
-50.91
-45.01
-41.00
-38.63
-37.42
-36.61
-35.75
-34.95
-34.68
-35.58
-38.12
-41.93
-45.75
-47.14
-43.10
-31.89
-13.39
9.65
32.48
49.78
58.34
58.11
51.96
44.92
41.73
44.90
54.14
66.54
77.45
82.10
76.53
59.62
34.06
5.49
-18.72
-32.25
-31.79
-18.26
4.34
29.87
52.05
66.26
70.58
66.66
59.49
55.23
59.73
74.65
96.53
116.80
124.90
112.83
79.31
31.06
-20.58
-63.73
-91.48
-103.67
-105.77
-104.96
-105.63
-107.05
-104.31
-92.20
-68.12
-33.46
7.85
51.18
93.65
133.27
167.86
194.29
208.13
206.38
188.24
156.13
114.98
69.74
24.80
-17.07
-53.84
-84.15
-106.94
-121.93
-129.01
-128.73
-122.55
-112.38
-101.06
-90.93
-83.34
-77.81
-72.76
-67.02
-60.27
-53.74
-49.26
-47.53
-47.33
-46.56
-43.58
-38.51
-32.97
-27.67
-21.32
-10.33
8.27
33.29
58.24
72.23
64.63
29.80
-28.65
-98.89
-164.64
-211.86
-232.88
-228.28
-204.19
-167.86
-124.71
-77.40
-27.96
20.33
62.42
92.05
104.60
99.10
79.10
52.23
28.22
16.19
21.40
44.11
78.39
115.09
145.18
163.36
170.47
170.65
168.08
163.43
153.96
134.94
104.13
63.18
16.94
-28.93
-70.57
-105.68
-133.29
-152.19
-160.92
-159.04
-147.97
-131.77
-115.05
-101.72
-92.84
-87.01
-80.92
-71.08
-55.06
-32.18
-5.09
21.74
41.81
50.04
44.67
28.12
7.32
-9.65
-15.75
-8.10
12.22
40.78
72.50
102.50
127.18
144.27
151.86
148.69
134.16
109.26
77.00
42.15
10.39
-13.54
-27.02
-30.06
-24.19
-12.09
3.60
19.98
34.39
45.83
54.78
64.16
76.76
94.18
115.43
136.48
152.13
157.34
149.19
126.62
90.69
44.43
-7.13
-57.73
-100.40
-129.65
-142.89
-140.95
-127.28
-105.70
-79.73
-52.81
-28.57
-10.99
-3.07
-5.30
-14.74
-26.16
-34.52
-37.23
-35.14
-31.07
-28.24
-27.65
-28.31
-28.96
-29.22
-30.42
-34.26
-40.23
-44.40
-41.23
-26.54
-0.38
32.42
64.71
90.91
109.51
122.00
130.08
132.40
125.43
106.63
77.33
44.87
19.15
7.04
7.47
11.61
7.83
-11.31
-43.81
-79.60
-106.36
-117.25
-114.96
-109.41
-111.00
-123.75
-143.23
-159.83
-165.76
-159.73
-147.14
-135.67
-129.43
-126.66
-121.21
-108.01
-86.05
-58.96
-31.23
-4.85
21.63
51.72
85.91
119.85
145.20
153.61
141.87
114.12
80.18
50.75
32.97
27.76
31.19
38.04
44.86
50.60
55.63
59.39
59.23
52.16
36.89
15.68
-5.93
-22.60
-31.29
-32.97
-30.85
-28.71
-28.11
-29.37
-32.57
-37.95
-46.84
-58.70
-70.39
-76.37
-70.89
-52.28
-24.09
5.45
27.38
36.15
32.61
22.02
11.30
5.66
5.96
9.84
13.47
14.54
13.02
11.39
12.75
19.09
30.69
44.99
58.19
66.33
67.29
60.75
48.43
32.05
12.06
-12.39
-42.24
-75.75
-107.39
-128.96
-133.37
-118.69
-90.07
-57.46
-30.33
-14.40
-8.41
-7.10
-4.72
2.08
12.95
26.13
39.71
53.46
67.14
79.03
84.79
78.84
57.94
23.91
-15.53
-48.64
-64.85
-59.71
-37.29
-8.78
13.05
19.35
9.96
-7.90
-23.95
-29.84
-23.09
-6.52
14.12
33.31
47.91
56.33
57.96
53.23
43.48
31.36
19.75
11.01
5.72
3.68
5.48
12.78
27.87
51.00
78.97
105.19
122.37
126.70
119.92
108.25
97.77
90.69
83.92
71.53
49.72
19.49
-14.61
-48.50
-82.06
-119.64
-165.71
-219.53
-271.48
-305.29
-305.13
-263.68
-187.41
-94.68
-8.85
51.66
79.48
80.37
68.25
57.06
54.58
59.38
64.50
62.85
52.75
38.60
27.55
24.68
29.13
35.46
37.35
32.21
22.10
11.19
2.05
-6.67
-18.27
-34.32
-51.83
-64.45
-66.69
-57.97
-43.56
-31.29
-27.49
-32.96
-43.51
-52.38
-54.93
-50.88
-43.52
-37.34
-34.18
-31.75
-24.79
-9.09
14.97
41.08
58.41
57.59
35.50
-2.24
-43.84
-77.69
-97.93
-106.22
-107.87
-107.10
-102.86
-90.31
-65.56
-29.78
8.93
39.52
52.88
47.41
29.24
10.06
1.80
11.90
41.06
82.64
126.10
160.18
177.47
176.53
161.64
140.08
118.45
100.45
86.66
76.42
68.88
63.77
61.16
60.42
60.73
61.50
63.74
69.03
78.56
91.51
104.01
110.81
106.80
89.47
58.78
17.98
-27.49
-70.52
-103.40
-120.73
-120.68
-106.65
-85.69
-65.77
-51.53
-42.85
-35.59
-23.97
-4.18
23.86
56.04
86.28
108.32
117.15
110.08
86.91
50.85
7.57
-34.97
-69.00
-89.01
-93.08
-83.33
-64.21
-41.64
-20.60
-5.11
2.68
2.45
-3.95
-11.74
-15.07
-8.06
11.61
40.86
70.75
90.15
90.47
69.94
34.92
-3.06
-31.85
-44.44
-41.24
-28.84
-16.06
-9.36
-10.77
-18.35
-29.29
-42.02
-57.06
-75.72
-97.92
-120.84
-139.20
-148.30
-146.59
-136.55
-123.69
-113.73
-109.59
-109.29
-107.35
-97.30
-75.34
-42.98
-6.72
24.94
45.88
55.30
57.76
59.88
66.01
75.66
84.40
86.07
76.30
55.19
26.80
-2.15
-25.01
-37.40
-37.84
-27.72
-10.64
8.88
27.46
43.78
58.43
72.42
84.62
91.20
86.80
67.51
33.50
-9.66
-52.95
-87.44
-107.69
-113.47
-108.37
-97.52
-85.23
-73.08
-60.74
-47.15
-32.38
-18.37
-7.75
-2.22
-1.38
-2.26
-0.62
6.95
20.62
37.31
51.92
59.82
59.49
53.26
46.04
43.35
47.72
58.31
71.50
83.44
92.34
98.68
103.64
107.24
106.85
97.70
75.77
40.94
-2.30
-45.22
-78.94
-97.20
-99.31
-90.30
-77.86
-68.88
-66.35
-69.56
-75.43
-80.42
-81.93
-77.80
-66.28
-46.42
-19.40
11.08
38.66
57.85
65.95
65.54
63.36
66.08
77.00
93.92
110.64
120.74
120.66
110.24
91.72
67.96
41.31
13.99
-12.19
-35.59
-55.48
-70.90
-80.47
-82.10
-73.58
-55.31
-30.60
-5.29
14.42
25.17
27.80
25.73
21.90
16.77
7.36
-9.56
-34.62
-64.30
-91.23
-108.56
-113.17
-107.48
-97.73
-90.53
-88.84
-90.98
-92.00
-87.00
-74.06
-54.81
-32.55
-9.83
12.24
33.94
54.82
72.62
84.68
89.40
88.46
86.16
87.18
94.42
107.66
124.94
143.38
160.77
174.91
183.63
185.22
179.18
168.21
156.79
149.40
147.06
146.02
138.52
116.10
73.99
13.77
-56.34
-124.67
-179.99
-215.04
-228.47
-224.77
-212.70
-202.21
-201.50
-213.62
-234.82
-255.33
-263.71
-252.90
-223.81
-186.12
-151.95
-129.71
-119.57
-114.05
-103.57
-81.99
-49.54
-10.46
30.67
72.17
114.02
154.94
189.53
208.96
205.85
179.10
137.34
95.47
68.59
64.46
79.67
102.36
117.65
115.09
92.11
54.40
11.65
-26.80
-55.09
-71.62
-77.09
-73.73
-63.39
-48.12
-30.66
-14.02
-1.23
5.67
6.09
0.83
-8.50
-20.31
-34.25
-50.81
-70.76
-93.56
-116.23
-133.88
-140.25
-130.71
-103.73
-61.37
-9.38
44.76
92.68
127.52
145.55
147.53
138.81
127.26
120.11
120.63
127.78
136.67
142.01
140.37
131.17
116.27
97.77
77.33
54.83
28.76
-2.07
-36.74
-70.58
-95.94
-104.08
-89.44
-52.77
-2.60
47.01
82.06
94.34
84.39
60.18
32.96
11.68
-0.34
-4.86
-6.11
-6.99
-8.34
-9.45
-10.69
-13.67
-20.41
-30.91
-42.04
-49.81
-51.72
-49.23
-46.52
-46.92
-50.36
-52.80
-49.83
-40.07
-26.87
-15.22
-8.28
-4.50
1.97
16.23
38.99
64.80
84.69
90.36
77.90
49.52
11.76
-26.91
-59.96
-84.15
-100.69
-113.33
-125.89
-139.93
-153.52
-163.07
-164.80
-157.97
-145.41
-132.55
-125.90
-129.83
-145.91
-171.10
-198.13
-216.21
-213.95
-182.60
-120.19
-33.82
62.65
152.83
223.92
269.44
289.71
289.48
274.26
249.36
219.61
191.04
169.93
161.20
165.15
176.71
187.51
189.95
181.20
163.22
140.43
116.17
91.33
66.08
41.84
22.43
10.86
7.11
6.44
2.31
-9.63
-28.52
-48.53
-63.65
-71.52
-75.36
-80.26
-88.87
-98.76
-102.80
-94.29
-70.87
-36.53
0.35
30.92
49.09
52.84
43.16
22.63
-6.12
-40.10
-76.28
-110.74
-139.01
-157.42
-164.09
-159.88
-147.99
-132.65
-117.47
-104.58
-94.79
-88.15
-84.17
-81.45
-77.94
-70.64
-56.79
-35.50
-8.75
18.92
43.09
61.32
75.00
87.81
102.49
118.80
132.93
140.29
138.20
127.95
113.37
98.28
84.61
72.23
61.76
55.51
57.65
71.20
94.32
119.80
137.14
138.35
121.86
92.52
57.92
23.53
-9.50
-43.05
-76.87
-106.06
-122.28
-119.35
-98.60
-71.55
-55.43
-64.53
-103.04
-161.95
-223.02
-266.46
-279.57
-260.48
-217.19
-163.32
-111.72
-71.77
-46.09
-32.12
-23.68
-14.47
-0.71
17.12
35.10
48.98
56.39
59.29
62.15
68.41
77.90
85.15
83.07
67.29
40.57
12.26
-5.59
-5.06
12.77
38.94
61.24
71.48
69.32
62.20
59.28
66.72
84.74
108.65
133.19
153.83
168.00
173.23
166.64
145.65
110.98
68.39
27.20
-3.16
-18.53
-21.36
-19.53
-22.30
-35.33
-59.03
-88.21
-115.51
-134.57
-143.44
-145.45
-146.65
-153.12
-166.54
-183.47
-196.52
-198.69
-186.82
-163.57
-135.41
-108.35
-85.02
-63.71
-41.00
-15.16
12.71
40.47
66.83
91.86
116.10
137.61
152.21
154.51
141.47
114.88
80.34
44.94
12.81
-15.46
-42.17
-68.25
-90.86
-104.23
-101.78
-80.90
-44.36
0.38
45.13
84.37
117.15
145.65
171.04
191.19
200.07
191.01
160.98
113.98
59.83
10.44
-24.81
-42.97
-46.72
-42.10
-34.48
-26.94
-20.55
-15.68
-13.68
-16.53
-25.95
-41.93
-62.58
-84.76
-105.17
-121.24
-131.46
-135.68
-134.58
-129.97
-123.78
-117.85
-112.73
-107.10
-99.51
-89.18
-77.88
-68.43
-63.00
-60.94
-58.34
-50.63
-35.22
-13.76
8.30
25.45
34.52
36.08
34.24
33.71
38.05
48.28
63.56
81.26
98.29
110.92
115.49
109.96
94.64
73.27
52.63
40.18
41.63
58.23
85.72
115.77
139.07
148.98
143.42
124.97
99.28
72.64
51.07
39.58
41.96
59.89
89.77
122.81
146.12
147.84
123.09
76.62
21.63
-26.21
-55.49
-63.60
-55.60
-40.91
-28.38
-23.07
-26.44
-37.23
-52.40
-68.06
-80.76
-88.03
-89.49
-87.12
-84.38
-84.65
-89.14
-96.72
-104.61
-110.40
-113.13
-114.45
-117.27
-123.15
-131.27
-137.18
-134.32
-115.65
-76.29
-16.10
59.00
137.13
203.61
245.01
254.20
233.14
192.51
147.72
113.32
97.31
98.49
109.22
118.91
119.99
109.68
89.63
63.28
33.43
1.98
-29.73
-59.08
-82.56
-96.97
-101.14
-96.96
-88.59
-80.92
-77.82
-81.39
-92.13
-109.18
-130.61
-153.10
-172.79
-185.47
-188.12
-179.44
-160.54
-134.75
-106.91
-81.82
-62.05
-47.54
-35.41
-22.67
-7.86
7.37
18.79
22.73
18.52
9.92
2.71
2.03
9.40
21.95
34.43
41.95
41.17
31.80
16.06
-1.51
-14.72
-17.55
-6.16
19.41
54.82
93.28
127.60
152.73
166.61
169.14
161.57
145.05
121.79
95.38
70.99
54.00
48.07
53.83
68.26
86.30
101.74
110.00
109.09
100.76
89.13
78.19
69.30
60.21
46.07
22.78
-10.62
-50.85
-91.95
-128.25
-156.18
-175.30
-186.52
-190.08
-184.40
-167.35
-138.54
-101.48
-63.61
-33.53
-17.44
-16.74
-28.09
-45.00
-60.48
-68.79
-66.61
-52.85
-28.42
3.79
39.10
72.32
99.30
118.73
132.40
143.26
153.22
162.50
169.60
173.88
176.24
178.16
180.40
180.62
175.18
160.62
136.27
104.74
69.87
34.86
0.24
-34.78
-71.09
-106.96
-138.48
-160.38
-169.07
-164.15
-149.41
-131.78
-118.20
-113.80
-118.96
-129.76
-139.53
-141.43
-130.96
-106.97
-72.09
-30.82
10.64
46.01
68.57
72.96
57.51
25.57
-13.52
-48.35
-69.11
-72.28
-61.59
-45.83
-34.86
-34.98
-47.45
-67.81
-89.54
-105.67
-111.75
-106.16
-90.29
-68.11
-44.98
-27.18
-19.46
-23.79
-37.76
-55.17
-67.83
-68.75
-54.78
-26.74
10.09
49.42
84.50
110.33
124.05
124.06
110.85
86.37
54.92
21.96
-6.78
-27.20
-38.48
-42.36
-42.09
-39.56
-34.73
-25.44
-9.41
14.55
45.99
82.37
120.68
157.25
188.22
209.32
216.79
208.65
186.62
156.77
126.93
103.76
88.35
75.90
57.76
26.79
-16.93
-65.50
-106.01
-126.65
-122.26
-97.18
-62.70
-31.12
-10.62
-2.38
-2.16
-3.53
-2.26
2.68
9.52
16.10
22.04
27.72
34.21
40.85
45.39
44.57
34.86
14.52
-15.80
-51.90
-87.13
-113.52
-124.17
-115.50
-88.76
-50.57
-10.72
19.87
32.42
22.40
-8.26
-51.61
-96.30
-130.61
-147.21
-144.87
-128.64
-106.08
-83.81
-63.86
-44.29
-22.10
4.64
34.72
65.34
93.37
116.97
135.94
150.08
159.13
161.75
156.13
140.13
112.34
73.14
25.50
-24.06
-67.39
-96.10
-105.06
-93.97
-68.24
-37.08
-10.55
3.70
2.86
-11.64
-34.97
-60.97
-84.05
-100.74
-109.58
-110.95
-106.81
-98.50
-86.15
-68.90
-45.89
-17.73
13.23
43.37
69.94
91.76
109.82
125.25
137.75
145.43
144.94
134.28
114.47
89.86
65.67
45.66
30.15
16.41
0.68
-19.55
-43.81
-69.07
-91.23
-106.92
-114.86
-116.16
-113.49
-109.76
-107.97
-110.47
-118.65
-132.03
-146.76
-155.39
-148.86
-121.21
-73.31
-15.70
35.35
64.32
63.87
39.89
8.53
-11.65
-8.53
18.65
59.88
101.15
132.05
149.78
158.54
164.49
171.32
177.73
179.37
172.58
157.00
136.44
116.08
99.97
89.35
82.60
77.67
73.37
70.31
69.60
72.12
77.11
82.48
85.39
83.20
74.09
57.09
33.03
3.99
-27.16
-57.68
-84.74
-105.77
-119.19
-124.46
-123.89
-122.53
-126.12
-137.61
-154.61
-169.50
-172.62
-158.81
-129.75
-93.86
-61.82
-40.01
-28.26
-20.57
-10.58
4.88
23.39
39.82
50.32
54.46
54.90
54.60
54.79
53.50
47.48
34.22
13.56
-12.46
-39.95
-64.45
-82.39
-91.11
-89.27
-76.66
-54.72
-26.72
2.46
26.22
38.56
35.45
17.32
-10.69
-40.74
-65.05
-79.75
-86.23
-89.77
-95.51
-104.98
-115.49
-121.78
-119.54
-107.76
-89.23
-68.01
-47.12
-27.31
-7.21
13.70
33.92
50.16
60.04
64.34
67.81
76.89
95.97
124.47
156.38
183.20
197.59
197.11
183.62
161.40
134.25
103.66
70.31
35.50
2.26
-25.66
-46.31
-59.95
-69.24
-76.76
-83.91
-89.61
-91.60
-87.65
-76.67
-59.80
-39.17
-17.92
1.27
16.28
26.66
32.90
35.90
36.88
35.91
32.25
24.72
12.32
-5.14
-25.85
-46.00
-60.57
-64.32
-54.19
-30.35
2.82
38.14
68.36
88.49
97.32
95.01
82.35
59.10
25.88
-13.76
-52.27
-79.75
-88.04
-74.14
-42.15
-0.86
39.49
71.74
92.87
102.86
103.40
95.59
80.28
59.32
35.72
12.97
-6.04
-19.70
-28.04
-31.70
-32.03
-30.56
-29.70
-32.16
-40.20
-54.60
-73.39
-92.86
-108.14
-115.90
-115.28
-108.65
-100.65
-96.93
-100.96
-112.50
-127.08
-137.40
-136.87
-122.45
-96.11
-64.13
-33.61
-9.52
7.11
18.90
29.87
43.50
61.11
82.06
104.81
128.10
150.89
172.45
191.05
203.71
207.32
199.69
181.41
156.03
128.95
105.00
86.40
72.35
60.21
46.95
30.87
11.90
-8.30
-27.42
-42.97
-53.63
-59.57
-62.92
-66.63
-72.87
-81.60
-90.05
-94.46
-91.03
-78.01
-56.10
-28.33
0.49
24.40
36.99
33.21
11.24
-24.31
-62.72
-90.91
-99.05
-85.75
-58.91
-32.04
-17.27
-19.82
-35.74
-55.09
-67.24
-65.98
-51.91
-29.99
-6.03
16.90
38.36
58.87
77.84
92.72
100.67
99.74
90.94
77.23
62.75
50.43
40.14
29.32
13.99
-7.90
-35.56
-64.88
-90.02
-106.45
-112.87
-111.39
-105.59
-97.64
-86.83
-71.12
-49.22
-23.04
2.63
23.06
35.81
41.66
42.64
39.60
31.54
17.75
0.50
-13.41
-15.30
-0.15
29.14
61.27
82.23
83.06
64.82
38.39
17.57
11.63
20.75
37.71
54.11
66.62
78.32
94.57
116.67
138.19
147.44
133.79
94.92
39.25
-18.17
-62.76
-86.99
-91.53
-82.22
-65.49
-45.76
-26.08
-10.71
-5.60
-16.35
-44.62
-85.78
-129.64
-164.17
-180.50
-176.55
-157.08
-130.89
-105.81
-85.24
-67.77
-49.26
-26.83
-1.98
19.16
29.12
23.62
5.88
-13.14
-19.37
-2.56
37.55
90.27
138.45
167.16
170.46
152.87
125.00
96.79
72.33
49.16
23.13
-6.72
-35.41
-54.47
-57.74
-45.14
-23.65
-3.06
9.36
12.76
12.29
15.30
27.25
48.48
75.37
102.47
125.29
141.51
150.12
151.35
145.76
134.63
119.95
104.57
90.52
77.79
64.67
48.03
25.53
-2.78
-33.42
-61.03
-80.79
-90.61
-92.03
-88.68
-84.95
-82.99
-82.97
-82.96
-80.22
-72.82
-60.26
-43.73
-25.37
-8.89
2.10
5.27
0.46
-9.41
-20.38
-29.27
-35.59
-40.73
-46.40
-52.31
-55.60
-53.08
-43.15
-27.73
-10.74
4.16
16.21
27.21
39.29
52.18
61.73
62.28
49.77
25.73
-2.61
-25.33
-34.38
-27.88
-11.30
3.91
5.88
-12.61
-50.71
-99.38
-144.95
-174.67
-181.55
-166.64
-137.14
-102.54
-70.61
-45.78
-28.91
-19.73
-17.29
-19.69
-23.51
-23.86
-16.07
1.39
24.95
46.57
56.94
50.51
28.16
-2.92
-32.79
-53.72
-62.97
-63.10
-58.92
-55.09
-54.43
-56.94
-61.25
-65.22
-67.11
-66.09
-61.71
-53.70
-41.13
-22.61
2.90
33.93
66.53
94.68
112.96
118.98
114.32
103.92
92.50
82.60
73.02
60.91
44.65
25.32
6.77
-6.70
-11.67
-7.53
4.53
21.47
39.67
55.45
65.52
68.95
66.83
62.89
61.56
66.83
80.71
102.40
128.78
155.22
177.29
191.56
196.53
192.56
181.15
164.18
142.78
117.34
86.98
51.08
9.98
-34.24
-77.34
-114.66
-142.66
-161.24
-173.04
-182.19
-191.01
-198.87
-202.85
-200.15
-191.16
-178.79
-166.74
-155.80
-142.24
-119.22
-81.68
-31.33
22.87
67.80
93.10
97.04
86.85
75.02
72.32
82.49
101.39
120.31
131.38
132.29
126.50
119.72
115.68
113.23
107.67
94.06
71.25
42.41
13.12
-10.85
-26.64
-33.22
-31.40
-22.38
-8.06
8.03
20.98
25.94
20.50
5.73
-13.32
-30.70
-41.58
-44.44
-41.84
-38.51
-39.44
-47.06
-59.72
-72.11
-78.50
-75.20
-63.05
-47.57
-35.98
-34.39
-44.86
-65.04
-88.79
-108.81
-119.23
-116.94
-103.33
-83.33
-64.71
-54.73
-57.30
-70.38
-86.58
-95.67
-88.41
-60.43
-13.45
44.56
102.44
148.68
175.00
179.16
165.51
144.08
126.32
120.58
128.37
144.29
159.18
164.90
158.92
144.73
129.13
117.71
111.55
107.51
100.31
86.76
67.08
44.69
23.17
3.51
-16.51
-41.05
-73.37
-113.88
-159.39
-203.85
-239.96
-260.86
-262.74
-246.33
-217.61
-185.94
-161.30
-149.57
-150.54
-159.25
-168.49
-172.93
-170.12
-159.45
-140.43
-112.35
-75.47
-32.71
8.87
41.91
61.69
69.81
72.70
77.54
87.73
100.23
108.33
105.95
92.05
71.32
52.52
44.23
51.34
73.63
105.23
136.94
158.49
163.31
151.02
127.85
104.58
90.74
91.14
103.01
118.49
129.43
131.43
124.76
112.62
98.14
81.32
60.26
33.29
2.30
-27.60
-50.85
-65.11
-73.12
-80.62
-92.40
-108.28
-122.66
-126.97
-115.09
-87.12
-49.17
-10.66
20.85
41.62
51.73
53.04
46.80
34.78
19.43
4.69
-5.80
-10.69
-11.69
-12.57
-16.38
-24.25
-34.12
-42.70
-46.47
-43.69
-34.89
-22.56
-10.34
-1.44
2.04
0.58
-2.92
-4.23
-0.40
8.47
19.32
27.34
29.40
24.57
13.13
-5.63
-34.64
-76.81
-132.16
-194.03
-250.43
-287.99
-297.50
-278.01
-236.48
-184.32
-132.24
-86.76
-48.81
-16.19
14.19
44.07
72.76
98.57
120.06
137.55
152.22
165.20
176.54
184.94
188.67
186.47
178.33
164.11
143.43
115.20
78.85
36.27
-8.03
-47.56
-78.14
-99.85
-116.89
-134.08
-152.38
-167.89
-173.99
-166.56
-147.64
-124.60
-104.76
-90.22
-75.41
-49.88
-5.35
58.40
131.13
196.37
238.19
248.81
231.79
199.57
167.88
148.15
143.93
150.34
158.07
158.22
146.01
121.65
88.17
49.33
7.69
-35.08
-76.81
-113.53
-139.48
-149.37
-140.15
-112.46
-70.46
-20.49
30.15
73.96
103.69
113.14
99.27
63.96
14.75
-36.70
-78.52
-103.31
-111.35
-109.91
-109.23
-117.36
-135.28
-155.98
-168.07
-161.71
-134.21
-91.58
-45.26
-7.26
15.23
21.01
13.52
-2.82
-24.25
-47.65
-69.26
-83.61
-85.14
-70.38
-40.60
-1.07
41.75
83.19
122.30
159.49
194.58
224.11
242.15
242.55
222.42
184.10
135.38
86.87
47.76
23.06
10.59
2.79
-10.14
-35.23
-72.55
-114.92
-150.68
-170.00
-168.88
-151.09
-124.69
-97.23
-72.35
-49.74
-27.54
-4.64
17.94
38.56
55.94
69.23
77.19
76.72
64.18
38.13
2.18
-35.58
-65.75
-82.64
-86.78
-83.20
-78.72
-77.36
-79.79
-84.00
-87.10
-86.30
-78.92
-62.69
-36.52
-2.97
31.22
55.86
61.68
45.13
11.43
-26.53
-53.60
-58.43
-38.94
-2.11
39.93
76.28
102.37
120.04
134.33
148.62
162.41
172.24
174.80
169.30
156.27
135.39
103.75
57.62
-3.10
-71.16
-131.79
-167.82
-166.98
-128.71
-64.76
4.86
59.04
82.93
72.10
33.45
-18.05
-65.02
-93.94
-99.66
-86.14
-63.31
-41.05
-25.55
-17.43
-14.73
-15.89
-21.46
-32.60
-47.89
-62.12
-66.85
-54.78
-24.57
16.89
56.68
81.68
84.53
67.72
41.47
18.91
8.98
12.78
24.87
37.36
45.98
51.90
60.74
76.71
97.70
114.92
117.32
99.05
63.66
24.06
-5.06
-15.14
-8.98
1.02
0.36
-19.19
-53.88
-90.24
-112.24
-110.59
-87.35
-54.09
-24.66
-7.30
-1.63
-0.62
2.36
8.59
13.21
9.45
-4.62
-23.16
-34.74
-30.11
-8.23
21.99
46.66
55.66
48.22
32.73
20.19
16.96
20.25
20.61
7.74
-23.17
-67.91
-115.89
-154.70
-175.66
-176.13
-159.79
-134.45
-109.22
-91.66
-85.46
-88.95
-95.21
-94.96
-80.91
-51.35
-11.50
29.42
62.50
83.45
93.96
100.09
107.99
119.98
132.90
138.94
129.32
98.13
45.62
-20.95
-88.88
-144.01
-175.17
-177.26
-153.05
-111.07
-62.69
-18.18
16.10
37.36
45.95
44.45
36.86
28.29
23.86
27.25
38.95
56.15
73.75
86.50
90.39
82.93
63.55
33.61
-3.21
-41.29
-73.77
-94.79
-100.95
-92.77
-74.89
-53.40
-33.63
-18.56
-9.17
-6.01
-10.20
-22.80
-42.93
-67.07
-89.09
-102.39
-102.18
-86.51
-56.72
-15.96
31.38
80.53
126.12
162.51
184.41
189.59
181.02
166.54
155.85
155.60
166.47
182.79
196.39
199.89
189.12
163.31
123.45
72.38
14.26
-44.53
-96.38
-135.21
-158.70
-169.52
-173.04
-174.07
-174.31
-171.42
-162.01
-143.69
-117.37
-86.39
-55.80
-29.96
-11.92
-2.20
1.93
5.70
14.88
32.99
58.86
86.28
107.21
115.76
111.19
98.11
82.83
70.37
61.86
55.77
50.51
46.39
45.93
51.33
62.30
75.60
86.36
90.56
87.47
79.79
71.67
66.90
66.09
67.53
66.93
60.15
44.59
19.60
-12.08
-45.22
-73.53
-91.78
-97.60
-92.34
-80.48
-66.81
-55.02
-45.78
-38.66
-33.26
-30.37
-31.40
-36.27
-42.16
-43.77
-37.06
-22.98
-7.48
1.36
-1.49
-14.04
-28.43
-35.65
-30.65
-16.41
-0.67
8.82
8.92
2.70
-4.66
-9.71
-14.10
-22.86
-40.09
-65.24
-92.44
-113.79
-123.13
-119.62
-106.73
-89.68
-72.29
-55.99
-40.29
-24.45
-8.89
5.49
18.11
29.68
42.16
57.29
75.75
96.72
118.07
136.14
147.23
147.58
135.41
112.66
84.86
59.79
43.27
36.28
34.19
28.66
12.24
-16.87
-53.45
-87.49
-108.57
-111.35
-97.83
-75.85
-55.12
-42.86
-41.92
-51.54
-69.26
-92.11
-116.75
-138.42
-150.67
-147.61
-127.60
-94.90
-58.60
-28.11
-8.07
3.53
13.67
29.31
52.97
81.81
109.30
128.89
136.70
131.46
113.82
85.26
48.92
9.82
-24.93
-48.16
-55.98
-49.30
-34.16
-18.61
-9.11
-7.99
-12.99
-19.22
-21.77
-18.41
-10.04
0.08
8.40
12.95
13.76
13.21
13.98
18.15
26.43
37.93
50.75
62.72
71.59
75.52
73.57
65.19
51.35
34.46
18.48
7.84
4.75
8.57
14.93
18.20
14.21
2.75
-12.33
-24.80
-29.02
-22.51
-6.61
14.06
34.82
51.85
63.87
70.62
71.80
66.80
54.72
36.59
15.27
-4.69
-19.21
-26.56
-28.60
-29.95
-34.80
-45.01
-58.00
-68.22
-70.39
-62.09
-46.29
-29.48
-18.70
-17.69
-25.49
-37.49
-48.50
-55.00
-56.33
-53.36
-46.74
-37.39
-26.73
-17.26
-11.22
-8.73
-6.60
0.71
17.63
44.54
75.84
102.60
116.16
113.37
98.11
79.50
67.90
69.77
85.71
110.59
135.72
152.11
153.09
136.86
106.87
70.99
39.11
19.54
15.81
25.28
40.68
52.50
53.30
40.16
14.52
-19.62
-59.21
-102.91
-151.01
-202.29
-252.19
-292.16
-312.51
-306.34
-272.92
-218.97
-156.36
-98.30
-55.24
-32.09
-27.62
-35.15
-45.66
-50.76
-45.99
-31.64
-12.23
5.00
13.54
10.50
-2.28
-18.71
-30.64
-31.78
-19.19
5.19
36.39
68.36
95.79
115.70
126.77
129.21
124.01
112.40
96.24
78.17
61.79
50.78
47.51
52.31
62.80
74.95
83.98
86.58
81.99
72.18
60.32
49.28
40.65
33.87
26.72
16.94
2.70
-16.86
-40.44
-65.82
-89.58
-108.62
-120.90
-125.73
-123.60
-115.34
-101.71
-83.29
-60.34
-33.71
-5.56
20.14
37.27
39.65
23.51
-9.24
-50.23
-87.22
-109.10
-111.26
-98.28
-81.18
-71.69
-75.87
-90.72
-106.42
-112.21
-101.92
-75.69
-39.57
-0.63
34.72
61.91
77.79
80.07
69.09
49.01
27.47
13.94
15.34
33.60
64.18
98.42
127.51
145.49
151.06
146.13
133.77
116.51
95.80
72.41
47.22
20.77
-6.66
-35.15
-63.97
-90.62
-111.46
-123.05
-124.12
-116.45
-104.03
-90.86
-78.82
-67.24
-53.46
-36.00
-15.12
7.34
28.83
48.01
63.91
75.71
81.24
78.33
66.24
47.57
28.01
14.06
10.52
17.80
32.71
50.26
65.91
77.15
83.84
87.29
89.37
92.50
98.45
108.39
121.86
136.38
148.14
152.90
148.15
133.25
110.49
83.04
54.38
27.01
1.79
-21.22
-42.99
-64.14
-85.12
-104.69
-120.69
-130.18
-130.64
-121.26
-103.63
-81.61
-60.29
-44.76
-39.22
-45.99
-65.44
-94.98
-129.57
-161.70
-183.31
-188.59
-176.41
-150.90
-120.13
-92.71
-73.94
-63.99
-58.83
-52.56
-39.65
-16.92
16.15
58.11
105.12
151.79
191.45
218.05
228.13
221.88
203.65
180.17
157.05
136.81
118.21
98.63
75.90
50.25
23.38
-2.76
-27.50
-51.26
-73.47
-92.16
-103.40
-103.85
-93.83
-78.73
-68.24
-71.34
-91.76
-124.99
-159.93
-183.34
-185.24
-161.98
-116.63
-56.74
8.32
69.13
118.21
149.64
160.46
150.91
124.72
89.12
52.20
21.27
0.21
-10.53
-13.88
-14.43
-17.37
-27.05
-44.80
-68.94
-94.46
-115.02
-125.63
-124.28
-112.61
-94.11
-72.36
-49.45
-26.70
-5.60
11.03
19.81
19.14
11.98
5.78
9.03
26.76
55.87
86.77
108.46
114.77
108.54
99.59
99.10
112.37
136.07
159.62
171.50
165.31
141.19
104.56
62.42
19.88
-19.44
-52.53
-76.13
-86.98
-83.93
-69.70
-49.78
-31.07
-18.82
-14.93
-17.81
-23.50
-27.96
-28.65
-25.79
-21.44
-18.26
-17.97
-19.47
-18.93
-11.77
3.86
24.97
43.95
52.26
44.92
23.59
-3.07
-24.31
-33.31
-30.19
-21.45
-15.04
-14.41
-16.52
-14.19
-2.29
17.20
35.57
42.10
30.47
1.95
-35.92
-73.42
-103.78
-123.76
-132.96
-131.42
-118.64
-95.35
-64.99
-33.82
-7.91
9.23
18.97
26.49
37.55
55.49
79.50
105.24
126.94
139.79
141.58
133.89
120.77
106.68
94.59
84.27
73.30
59.18
40.88
19.98
-0.33
-17.66
-31.70
-43.28
-54.06
-64.09
-72.54
-77.96
-79.30
-76.03
-67.26
-51.83
-28.49
1.92
35.26
65.34
85.68
93.01
89.03
79.21
69.66
63.64
60.21
55.74
46.34
29.74
6.01
-23.32
-56.30
-90.33
-122.04
-147.32
-162.18
-164.76
-156.54
-141.22
-122.81
-103.40
-82.94
-60.72
-37.72
-17.61
-5.32
-3.34
-9.53
-17.62
-21.54
-18.85
-13.03
-10.47
-15.47
-26.19
-34.62
-31.59
-12.78
17.60
48.36
67.21
66.59
47.13
14.76
-23.72
-64.68
-107.66
-151.77
-192.23
-220.22
-226.27
-205.92
-163.74
-112.61
-69.37
-47.61
-51.33
-72.86
-95.60
-101.32
-77.88
-24.96
46.10
116.55
168.41
191.71
187.73
167.18
144.28
130.50
130.56
142.74
161.40
179.54
191.32
192.99
183.19
162.36
132.74
97.93
62.84
32.75
12.57
4.73
7.78
16.32
22.65
19.99
5.36
-18.49
-43.73
-60.10
-59.55
-40.39
-8.40
24.57
45.93
48.29
31.85
4.44
-23.01
-41.92
-49.84
-50.48
-49.78
-51.27
-53.69
-52.49
-43.66
-27.23
-7.33
10.33
22.52
29.70
34.68
39.08
41.57
38.75
28.23
11.16
-7.10
-19.74
-21.97
-13.35
2.73
21.07
37.31
49.37
56.18
57.73
53.94
45.35
33.65
20.89
8.90
-2.41
-14.87
-30.78
-50.92
-73.20
-93.67
-108.68
-116.80
-119.90
-121.43
-123.60
-126.01
-125.28
-117.00
-98.86
-71.80
-40.52
-11.09
10.93
23.06
26.06
23.49
20.32
20.24
25.31
35.59
50.75
70.86
96.63
128.12
162.89
196.00
220.32
229.95
222.28
198.72
163.56
122.07
78.05
34.30
-6.98
-43.71
-73.04
-93.40
-104.78
-108.87
-108.34
-105.87
-103.29
-101.72
-101.27
-100.54
-96.57
-85.57
-64.49
-33.09
5.03
43.31
75.13
95.68
103.71
100.69
89.68
74.36
58.62
46.31
40.26
40.94
45.24
47.44
41.87
26.43
4.01
-19.51
-38.17
-49.49
-54.92
-57.66
-58.98
-56.94
-47.27
-26.48
5.86
46.56
90.55
132.25
166.77
188.64
192.14
172.15
127.94
65.71
-1.76
-58.53
-92.29
-99.82
-87.42
-67.81
-53.85
-52.98
-65.67
-87.76
-113.41
-138.01
-158.29
-171.99
-177.40
-173.82
-162.58
-146.79
-130.52
-117.10
-108.56
-104.75
-103.85
-102.73
-97.47
-86.06
-69.12
-51.08
-38.21
-35.31
-42.33
-52.51
-55.46
-41.33
-5.92
46.99
107.35
162.41
200.98
215.97
205.31
171.59
122.32
69.09
25.00
0.53
-0.65
16.59
40.44
57.26
56.99
37.08
2.71
-35.49
-65.93
-79.93
-73.83
-50.04
-15.85
19.05
45.59
58.03
54.83
38.64
14.13
-13.61
-40.48
-63.41
-79.67
-87.36
-85.65
-75.34
-57.87
-34.46
-5.35
29.07
65.86
98.94
119.92
122.64
106.93
80.07
53.48
36.73
32.48
35.66
37.63
31.96
18.63
3.28
-7.29
-9.48
-5.21
-0.25
-0.04
-6.00
-14.31
-18.58
-14.10
-0.88
16.26
30.51
37.22
35.93
29.89
23.32
18.98
17.10
16.04
14.93
14.92
19.14
30.85
49.93
71.55
87.86
92.52
83.88
66.79
50.34
43.57
50.90
69.72
91.80
107.34
109.04
94.71
66.90
30.97
-7.16
-41.84
-67.61
-79.65
-75.23
-55.97
-29.31
-7.39
-2.75
-23.12
-66.73
-122.02
-171.35
-198.40
-195.80
-167.78
-128.08
-92.83
-72.63
-68.15
-72.08
-75.15
-72.38
-65.45
-60.03
-60.64
-66.82
-73.50
-75.57
-72.41
-68.81
-71.55
-83.88
-101.71
-115.31
-114.68
-95.55
-62.35
-25.42
4.74
22.04
26.97
24.68
21.32
21.37
26.54
35.64
46.24
55.74
61.44
61.58
56.04
47.40
40.41
40.92
52.54
74.27
99.74
120.20
129.56
127.49
119.80
114.41
116.50
125.29
136.12
143.51
144.97
142.44
139.43
137.52
134.32
124.75
103.85
69.89
25.31
-24.59
-72.61
-112.15
-137.95
-147.50
-142.17
-126.58
-107.06
-88.62
-72.94
-57.51
-39.07
-16.32
7.87
27.68
37.86
36.06
23.95
4.56
-19.92
-49.44
-83.76
-120.17
-153.66
-178.45
-192.29
-198.03
-202.82
-212.53
-227.58
-241.47
-243.38
-224.71
-182.69
-121.89
-50.58
22.67
90.60
147.56
188.48
209.74
210.32
194.40
170.36
148.15
135.07
132.23
134.83
134.43
123.85
99.72
63.64
20.75
-22.32
-58.75
-83.97
-95.69
-94.46
-82.56
-62.73
-37.36
-8.02
23.50
54.77
82.04
101.77
111.63
111.78
105.12
95.48
85.99
77.48
69.79
62.83
58.04
57.62
62.00
67.82
68.49
57.85
33.69
0.04
-34.95
-62.72
-78.92
-85.77
-89.29
-96.67
-111.15
-130.60
-148.83
-157.76
-151.27
-126.87
-86.75
-36.32
16.93
65.12
101.78
123.29
130.12
126.28
118.37
112.20
111.01
113.51
114.70
109.13
94.18
71.73
46.92
24.99
7.50
-7.85
-24.91
-44.82
-63.75
-74.95
-72.28
-55.21
-29.37
-3.66
14.46
23.28
26.25
29.59
37.59
50.55
65.09
76.46
81.46
79.38
72.11
62.20
51.96
41.62
29.60
13.00
-11.26
-44.35
-84.02
-123.73
-154.40
-167.75
-160.44
-135.87
-102.67
-70.16
-43.43
-21.13
2.31
32.29
69.42
108.29
139.32
153.63
146.56
120.19
81.28
38.65
-0.08
-30.61
-51.08
-62.23
-65.74
-63.92
-59.15
-54.01
-51.47
-54.00
-63.23
-78.30
-96.44
-113.95
-128.13
-139.34
-150.72
-165.82
-185.55
-206.79
-223.27
-228.35
-217.99
-191.44
-150.64
-98.23
-37.22
27.77
89.23
138.39
168.22
178.00
174.83
169.47
170.08
176.06
178.24
164.74
129.39
77.54
24.66
-11.58
-21.51
-8.49
13.86
30.10
31.37
18.99
1.21
-13.73
-22.82
-28.87
-36.11
-45.50
-52.40
-48.79
-28.84
6.12
47.35
82.06
99.19
94.55
71.70
39.54
8.87
-12.22
-20.63
-18.97
-13.48
-10.50
-13.48
-21.20
-28.48
-28.83
-17.52
5.53
36.08
66.98
90.09
98.85
89.75
62.80
21.93
-25.50
-69.66
-100.38
-110.65
-99.45
-72.88
-42.55
-21.14
-18.59
-39.03
-80.64
-136.57
-197.46
-252.55
-290.96
-303.40
-283.85
-231.87
-153.56
-61.53
28.08
99.86
143.91
158.80
151.11
133.10
117.42
112.83
121.99
141.68
165.22
185.69
198.46
200.93
192.51
173.61
145.80
112.00
76.46
43.87
17.40
-2.38
-17.14
-28.92
-37.93
-42.81
-41.51
-34.37
-24.90
-18.51
-18.91
-25.52
-33.15
-34.75
-25.29
-4.92
20.32
42.57
55.78
58.78
55.32
50.57
47.89
46.05
41.31
29.38
8.40
-20.12
-51.98
-81.93
-105.93
-121.59
-127.72
-124.03
-110.21
-87.01
-56.43
-22.16
11.54
40.48
61.90
73.92
75.90
68.64
54.83
39.33
27.50
24.20
31.17
47.74
71.03
97.10
122.24
142.70
156.02
160.01
154.10
139.31
118.39
95.14
72.86
53.84
37.86
23.34
8.53
-7.28
-23.58
-39.40
-53.85
-66.91
-78.62
-89.97
-101.74
-115.30
-131.39
-149.57
-168.22
-183.74
-192.86
-192.90
-184.20
-169.48
-153.00
-138.59
-127.39
-118.22
-108.57
-97.18
-84.98
-74.28
-67.01
-62.96
-59.25
-51.17
-35.22
-10.75
18.15
44.86
62.63
68.17
63.69
55.37
50.38
52.40
60.20
68.73
73.15
72.86
71.54
74.95
85.55
100.35
110.99
107.92
85.44
44.75
-5.90
-55.00
-91.76
-109.98
-108.77
-91.31
-63.28
-30.51
2.15
31.20
53.97
69.20
76.63
77.66
74.89
70.55
65.60
58.67
46.95
28.43
3.65
-23.33
-46.21
-58.69
-56.92
-40.71
-14.24
16.31
44.90
67.69
83.54
93.16
98.46
100.80
101.61
102.24
104.21
108.63
114.58
118.28
112.87
91.04
48.24
-14.03
-87.52
-158.93
-213.13
-238.54
-230.25
-192.33
-136.93
-79.68
-34.71
-9.90
-6.19
-18.88
-41.51
-67.73
-92.36
-110.87
-118.69
-112.67
-93.28
-65.94
-39.42
-22.28
-18.68
-26.40
-38.20
-46.19
-46.70
-40.98
-33.98
-30.51
-32.31
-37.63
-42.40
-43.10
-37.75
-26.57
-10.85
7.63
26.29
41.82
50.20
48.71
37.31
20.75
7.37
6.84
25.93
64.35
114.86
165.47
204.71
225.98
229.54
220.91
206.50
189.88
169.57
142.12
105.53
63.44
25.14
0.80
-3.63
9.02
28.88
43.51
44.20
29.39
3.71
-25.20
-51.42
-72.23
-88.64
-102.71
-115.97
-128.41
-138.54
-144.15
-143.02
-134.27
-117.99
-96.37
-72.39
-49.17
-28.50
-10.25
5.91
20.24
30.81
34.47
27.83
9.45
-18.68
-51.37
-80.97
-100.21
-104.01
-92.42
-71.02
-48.67
-33.90
-30.07
-34.15
-37.82
-33.52
-18.46
3.40
24.27
38.29
45.04
49.71
57.82
70.83
84.07
90.35
85.07
70.07
52.57
39.75
33.89
30.46
22.13
4.40
-19.49
-39.64
-45.23
-31.30
-3.60
24.70
39.87
36.16
19.58
4.69
6.65
32.47
77.18
126.09
162.69
176.53
167.71
144.57
117.93
95.25
77.64
61.42
41.99
17.10
-12.24
-41.90
-67.57
-85.80
-94.64
-93.72
-83.61
-65.76
-42.48
-17.27
5.59
22.40
30.92
31.88
27.94
23.43
22.21
26.69
36.75
50.12
62.86
70.60
69.45
56.78
32.34
-2.18
-42.79
-84.19
-120.50
-147.01
-161.32
-163.92
-158.47
-149.71
-142.07
-137.39
-134.56
-130.93
-124.09
-113.28
-99.84
-85.92
-72.63
-59.20
-43.38
-22.73
3.90
36.09
72.59
112.06
152.52
190.84
221.95
240.20
241.27
225.10
196.65
164.39
135.95
114.52
97.65
79.58
54.84
22.73
-11.76
-40.97
-58.42
-62.34
-56.07
-45.58
-35.65
-27.92
-22.11
-17.53
-15.44
-18.75
-30.09
-49.79
-74.74
-100.07
-121.16
-135.68
-144.58
-151.78
-161.92
-178.20
-200.55
-224.10
-241.03
-242.92
-224.88
-187.74
-138.68
-87.55
-42.64
-6.95
22.19
49.72
79.22
110.19
139.11
162.18
178.30
189.69
199.47
209.31
217.78
221.56
218.06
207.88
194.84
183.25
174.44
165.84
152.87
131.59
102.71
70.44
39.68
12.82
-11.59
-36.83
-64.19
-90.56
-109.59
-115.14
-105.09
-83.14
-56.89
-33.99
-18.53
-10.56
-7.50
-7.03
-8.55
-12.24
-18.18
-24.75
-29.61
-31.62
-32.38
-36.21
-46.84
-64.53
-84.46
-98.66
-99.52
-85.01
-59.52
-31.84
-10.54
-0.09
-0.54
-9.03
-22.84
-40.33
-59.43
-75.84
-82.71
-73.54
-46.14
-5.64
36.88
69.37
85.15
85.31
76.76
67.43
60.71
54.31
42.14
18.90
-15.31
-54.33
-88.01
-107.06
-106.83
-89.64
-62.66
-35.11
-14.75
-4.80
-3.52
-5.23
-4.03
4.23
20.21
41.67
65.50
88.76
109.30
124.68
132.30
129.43
114.92
89.83
57.87
24.64
-4.84
-27.34
-42.94
-54.14
-64.44
-76.94
-92.89
-111.96
-132.25
-150.55
-162.82
-165.62
-156.87
-137.66
-112.29
-87.12
-68.04
-56.93
-51.47
-46.50
-36.68
-20.18
0.65
20.81
36.09
45.07
50.59
56.53
65.68
77.46
88.30
94.95
95.59
91.20
83.76
74.78
64.36
52.09
39.18
28.71
25.21
32.07
49.41
72.82
95.76
112.44
121.12
124.18
125.15
126.01
125.23
118.82
103.43
78.30
45.50
8.24
-30.42
-68.36
-102.40
-127.66
-138.08
-129.76
-105.08
-73.49
-48.58
-40.68
-51.85
-74.36
-96.02
-107.64
-107.59
-101.83
-97.97
-99.58
-103.45
-102.06
-89.72
-67.08
-42.11
-25.13
-22.83
-33.22
-46.00
-47.03
-25.84
18.90
78.64
138.36
183.42
205.62
205.93
192.64
176.56
166.19
164.63
169.35
174.03
172.56
161.07
138.95
108.60
72.46
32.02
-13.20
-63.62
-117.72
-170.49
-214.17
-242.00
-251.19
-245.21
-231.14
-215.83
-201.49
-185.12
-161.43
-127.19
-84.40
-39.09
1.43
32.01
51.21
60.73
63.90
63.92
64.07
66.85
74.17
85.86
98.92
107.96
107.21
94.07
70.39
42.56
18.53
5.19
5.04
15.45
29.80
38.92
34.82
13.23
-23.30
-65.80
-101.30
-117.48
-108.24
-75.49
-29.59
15.42
47.04
58.42
50.06
28.15
2.02
-19.61
-30.34
-28.07
-14.07
7.86
33.02
57.54
78.76
95.85
108.35
116.19
119.04
117.06
111.51
104.31
98.15
94.76
94.55
95.52
93.59
83.97
63.07
30.38
-12.00
-59.53
-107.56
-152.03
-189.83
-218.18
-233.42
-232.01
-212.09
-175.82
-129.83
-84.55
-50.50
-35.07
-39.16
-56.47
-76.73
-88.66
-85.49
-66.42
-35.72
-0.52
33.32
62.10
84.24
98.19
101.50
91.88
69.10
36.70
1.36
-28.80
-47.65
-52.68
-45.92
-31.41
-13.61
4.00
19.44
30.97
37.22
36.91
30.39
20.15
11.26
9.39
18.43
38.77
65.58
91.74
109.79
115.17
108.52
94.31
79.68
70.90
71.45
80.87
95.32
109.20
117.45
117.66
110.86
101.00
92.12
86.89
84.43
80.74
70.03
47.07
10.20
-38.08
-90.55
-137.50
-169.27
-180.12
-170.96
-149.28
-126.75
-112.94
-111.83
-119.74
-128.71
-131.48
-124.73
-110.33
-91.71
-71.66
-50.62
-28.95
-8.96
4.48
6.21
-5.69
-27.27
-50.06
-65.65
-69.44
-62.37
-49.10
-34.07
-19.68
-5.97
7.57
21.68
37.02
54.90
77.36
105.31
137.15
166.62
186.00
189.04
175.16
149.80
121.86
99.84
86.81
80.53
75.09
65.18
48.39
26.12
2.22
-19.70
-37.48
-50.17
-57.75
-60.65
-59.48
-55.15
-49.23
-42.92
-36.98
-30.95
-24.39
-16.49
-7.02
3.79
15.38
26.37
35.53
40.34
38.67
29.08
11.98
-10.30
-34.95
-60.28
-86.50
-114.97
-146.42
-178.97
-208.42
-229.31
-236.81
-228.85
-206.78
-174.51
-137.07
-99.17
-64.51
-35.28
-12.78
3.66
15.80
26.31
36.93
47.36
55.31
58.37
55.85
49.40
43.19
40.75
43.80
51.76
62.69
75.65
90.73
107.94
126.17
142.32
152.75
155.44
151.23
142.51
131.96
120.42
106.70
89.16
67.41
42.59
16.77
-8.03
-31.24
-52.87
-72.77
-89.13
-98.47
-97.56
-86.11
-67.84
-49.39
-37.49
-35.47
-42.47
-54.16
-66.23
-76.20
-82.81
-85.25
-81.17
-68.09
-45.30
-16.53
10.48
27.29
28.77
15.90
-5.10
-26.50
-43.27
-54.26
-60.98
-65.32
-67.69
-67.41
-63.05
-54.18
-41.50
-27.16
-13.30
-0.84
11.16
25.66
46.34
74.68
107.82
139.32
161.27
168.61
162.60
149.72
138.92
136.36
142.75
153.22
161.04
160.68
150.81
133.42
112.57
92.59
76.25
63.91
54.05
43.62
30.22
12.98
-5.76
-21.89
-30.79
-30.36
-22.30
-11.40
-3.30
-1.93
-7.73
-17.98
-29.21
-38.82
-46.23
-52.45
-58.43
-64.96
-72.07
-79.68
-87.89
-96.97
-106.09
-113.00
-113.99
-105.73
-87.39
-61.45
-33.73
-11.41
0.05
-1.17
-13.10
-31.11
-50.49
-68.92
-86.40
-104.30
-122.73
-138.78
-146.81
-141.18
-120.21
-87.81
-52.39
-23.14
-5.08
3.22
9.31
21.85
45.52
78.09
111.13
134.76
142.34
134.07
116.20
96.78
81.40
70.42
59.94
44.82
23.28
-1.69
-23.29
-34.17
-30.83
-15.14
6.75
28.10
44.53
56.10
65.27
74.26
82.59
86.21
80.61
63.13
35.30
1.81
-31.35
-59.78
-82.03
-98.23
-109.54
-116.26
-119.70
-121.77
-124.95
-130.53
-136.67
-139.27
-133.68
-118.81
-97.75
-77.13
-62.97
-56.99
-54.79
-47.60
-26.20
14.84
73.51
141.26
205.05
251.63
272.01
263.60
231.21
184.43
134.61
91.02
59.09
39.81
30.34
25.68
19.33
6.40
-15.99
-47.00
-83.57
-121.20
-155.16
-181.43
-196.19
-196.44
-180.62
-149.83
-108.50
-64.04
-24.47
4.47
20.85
27.36
28.12
26.44
23.61
19.26
13.01
6.03
1.72
3.69
14.03
30.93
48.23
57.51
51.98
30.60
-1.04
-32.42
-52.83
-55.62
-40.52
-12.99
19.52
50.20
74.65
90.79
98.03
96.41
86.49
70.05
49.11
25.93
1.79
-21.81
-42.64
-57.83
-64.85
-63.33
-55.75
-45.95
-37.12
-30.61
-25.95
-22.76
-22.20
-26.13
-35.42
-47.67
-57.39
-58.38
-46.42
-22.16
10.17
43.61
72.11
91.63
100.82
101.05
95.80
90.29
89.29
95.45
107.13
119.76
127.68
127.45
119.22
104.62
84.96
59.62
27.64
-9.68
-46.88
-75.76
-89.08
-84.58
-67.32
-46.85
-32.99
-30.86
-40.06
-55.83
-71.96
-83.99
-89.66
-89.21
-83.59
-74.53
-63.27
-50.16
-34.78
-16.52
3.31
20.75
29.49
24.56
4.99
-24.45
-54.85
-76.74
-84.13
-77.05
-59.63
-38.08
-16.93
2.03
19.59
37.83
58.05
80.29
102.60
122.32
136.46
143.00
141.42
132.39
117.27
96.10
68.00
31.74
-11.57
-57.39
-98.77
-129.06
-145.32
-149.50
-146.97
-142.44
-137.21
-128.96
-114.52
-92.99
-66.38
-38.48
-11.56
14.71
41.68
68.84
92.12
105.60
104.78
91.33
72.52
58.16
55.11
63.85
79.09
92.77
99.14
96.38
86.14
71.02
52.02
28.81
0.64
-30.44
-58.92
-77.00
-78.46
-62.67
-35.83
-9.24
6.91
7.40
-5.03
-22.75
-37.59
-44.74
-43.60
-35.80
-23.26
-6.16
14.55
36.75
55.82
67.06
68.16
60.14
46.77
31.50
16.22
0.39
-16.77
-34.79
-51.62
-64.42
-72.09
-75.38
-76.73
-78.62
-82.91
-90.45
-101.67
-116.78
-134.38
-151.49
-162.71
-162.57
-146.79
-115.24
-71.64
-22.98
22.17
56.69
76.00
80.29
73.28
61.63
52.85
52.72
63.49
82.07
101.69
114.21
113.68
98.73
72.56
40.54
7.60
-23.25
-51.29
-75.49
-93.50
-101.39
-95.96
-77.68
-51.46
-25.73
-8.23
-2.55
-6.58
-15.10
-22.93
-28.29
-32.85
-39.30
-48.47
-57.54
-61.66
-56.79
-42.31
-22.03
-1.33
14.66
24.24
28.85
31.65
35.33
40.50
45.55
47.67
45.31
38.55
29.90
22.48
17.97
15.94
13.61
8.69
0.90
-6.26
-7.07
2.78
22.83
47.01
65.90
71.96
63.53
45.63
26.75
13.61
7.71
5.84
3.06
-2.13
-6.66
-4.22
9.43
32.94
59.12
78.29
84.16
77.23
65.43
58.86
64.17
80.46
99.41
110.26
105.57
85.95
58.83
34.42
19.23
13.17
10.94
6.08
-4.26
-18.38
-31.86
-41.36
-46.91
-51.73
-59.35
-70.29
-81.66
-88.74
-88.10
-79.73
-67.33
-56.63
-52.22
-56.03
-66.31
-79.36
-90.36
-94.97
-90.47
-76.24
-54.14
-27.55
-0.88
22.66
41.34
55.12
64.45
68.98
68.13
61.56
51.41
42.37
39.74
47.27
64.17
85.11
102.58
110.18
105.99
92.40
74.16
55.79
39.54
26.09
16.17
11.25
13.49
23.52
39.82
58.27
74.05
83.61
85.61
80.89
71.22
58.70
45.50
33.32
23.34
14.35
3.32
-13.98
-40.43
-74.75
-110.96
-139.87
-153.01
-145.97
-120.25
-82.59
-41.62
-4.85
23.25
41.73
51.32
53.03
47.34
34.96
18.46
2.60
-6.09
-2.75
12.51
34.39
54.01
63.97
61.95
51.49
39.07
29.48
23.77
18.94
11.62
1.00
-10.34
-18.48
-20.50
-16.45
-9.16
-2.19
1.62
1.89
0.31
0.01
4.08
13.95
28.18
42.47
51.31
50.52
38.61
16.68
-12.63
-46.47
-82.26
-116.74
-146.05
-165.83
-173.11
-167.82
-153.71
-136.84
-122.42
-112.68
-106.09
-98.78
-87.08
-69.14
-45.86
-19.69
6.29
29.15
46.36
56.11
57.69
51.75
40.15
24.91
8.29
-8.25
-23.73
-36.95
-46.97
-52.34
-51.89
-45.97
-35.95
-24.07
-12.86
-4.53
-0.58
-1.08
-4.76
-9.08
-10.11
-4.86
7.73
26.04
45.88
62.93
74.40
80.38
82.95
84.59
87.12
91.29
96.69
102.00
106.09
107.29
104.49
97.02
85.67
72.21
58.22
44.15
29.14
12.09
-6.23
-22.29
-30.63
-26.93
-10.82
12.89
36.21
50.32
49.46
32.13
0.68
-39.69
-82.51
-121.32
-150.91
-167.52
-169.61
-158.10
-136.24
-108.30
-78.20
-48.86
-21.85
1.24
18.23
26.34
24.18
13.12
-2.14
-15.65
-24.42
-30.36
-39.48
-57.57
-84.68
-113.62
-131.82
-128.27
-99.24
-51.76
-0.35
39.77
59.58
60.33
51.75
47.29
56.98
82.86
117.20
146.15
156.11
140.18
101.87
53.11
9.34
-17.70
-24.06
-14.17
2.44
15.57
18.88
12.60
2.64
-2.37
4.19
23.47
50.87
77.94
96.88
103.89
101.46
95.96
94.01
98.49
107.04
113.89
112.43
98.22
70.77
34.22
-4.82
-39.46
-65.34
-81.95
-91.90
-99.17
-106.78
-116.48
-129.60
-147.30
-170.17
-196.41
-220.58
-234.08
-228.70
-199.82
-149.66
-86.96
-23.67
29.16
64.82
81.07
79.56
64.64
42.39
20.02
4.19
-1.58
1.97
9.90
15.51
14.24
5.52
-7.33
-19.25
-26.48
-28.34
-26.73
-23.93
-20.87
-16.75
-9.88
0.52
13.99
29.28
45.85
63.40
81.58
98.97
113.21
121.90
123.98
121.04
116.27
112.39
110.34
108.40
103.62
94.09
79.89
63.38
47.46
34.17
23.42
13.59
1.46
-15.46
-37.18
-60.22
-77.86
-83.07
-71.64
-44.65
-7.91
30.10
62.02
83.73
94.52
95.57
87.78
71.51
47.41
17.42
-14.65
-44.28
-67.73
-83.68
-93.54
-100.69
-109.07
-121.48
-138.27
-157.06
-173.34
-181.58
-177.89
-161.17
-133.80
-100.05
-64.29
-30.03
0.76
26.60
47.16
62.85
74.99
84.54
91.20
92.89
86.54
70.81
47.31
20.58
-4.40
-25.43
-43.92
-63.38
-85.79
-109.23
-128.45
-137.74
-134.45
-119.81
-97.83
-72.80
-48.01
-25.37
-5.76
10.53
24.55
38.26
54.15
73.10
94.15
113.84
128.89
137.93
142.11
143.65
143.85
142.53
137.79
129.08
117.45
105.44
94.94
85.06
72.77
54.38
28.66
-1.96
-31.56
-53.17
-62.07
-57.05
-40.98
-18.81
3.32
20.16
27.99
25.11
12.52
-6.49
-26.30
-41.02
-45.62
-38.07
-19.63
4.76
27.40
40.13
36.58
16.14
-16.18
-50.62
-77.42
-91.37
-94.07
-92.34
-93.00
-98.69
-105.91
-107.68
-98.65
-79.35
-56.25
-38.18
-30.84
-32.61
-35.92
-30.69
-11.03
21.48
58.33
87.84
100.65
93.65
70.67
39.04
6.85
-20.73
-42.35
-59.37
-74.28
-88.15
-100.22
-108.54
-111.81
-110.57
-107.48
-105.15
-103.13
-97.57
-82.31
-52.39
-7.87
45.28
97.36
139.03
164.59
174.45
172.69
165.17
156.44
148.58
142.20
137.08
132.45
126.91
119.39
108.99
96.51
83.96
73.16
64.36
55.79
45.25
31.51
16.83
6.42
6.97
22.60
51.92
87.95
119.95
138.58
139.66
125.69
103.69
80.52
60.05
41.24
21.05
-3.17
-30.75
-57.66
-78.75
-90.14
-91.72
-86.96
-82.08
-82.66
-92.28
-110.75
-134.17
-156.79
-172.82
-179.06
-175.09
-162.88
-144.98
-123.32
-98.98
-73.20
-49.30
-32.10
-26.60
-34.08
-50.50
-66.58
-71.95
-60.18
-31.85
5.03
39.17
60.37
63.59
49.55
23.00
-9.02
-39.91
-63.17
-73.75
-68.71
-48.57
-18.28
14.62
42.94
63.51
77.89
90.92
106.84
126.23
145.78
160.11
165.59
161.39
150.37
136.48
122.54
108.48
92.69
73.49
50.74
26.31
2.88
-17.49
-34.35
-48.67
-61.52
-73.19
-82.07
-86.60
-85.57
-79.91
-72.41
-65.77
-62.04
-60.68
-59.92
-57.64
-53.46
-48.56
-44.82
-43.86
-45.68
-49.41
-53.52
-57.62
-62.16
-68.02
-75.47
-83.48
-90.46
-94.15
-93.72
-89.71
-84.01
-79.13
-76.54
-76.51
-77.70
-78.04
-75.26
-68.01
-55.58
-38.72
-19.07
1.80
21.88
39.96
55.35
68.27
79.56
90.36
102.11
115.25
129.38
142.07
150.35
151.17
143.26
128.71
111.68
97.58
89.40
86.65
84.94
78.34
62.63
37.45
6.74
-23.23
-46.97
-61.52
-67.03
-64.93
-56.38
-42.02
-22.70
-0.33
21.06
37.30
46.84
51.89
58.09
70.83
92.44
119.35
144.31
159.80
162.64
155.30
143.10
130.89
119.51
106.07
86.14
57.85
23.45
-12.13
-43.32
-67.27
-84.03
-96.11
-106.77
-118.66
-133.18
-149.68
-165.55
-177.06
-181.26
-177.16
-167.03
-155.03
-144.71
-137.04
-130.09
-121.19
-108.83
-94.57
-81.63
-73.03
-69.36
-68.01
-65.22
-58.27
-46.88
-32.70
-18.35
-5.52
5.83
16.41
27.48
38.87
49.43
56.47
57.26
50.15
35.64
16.52
-2.95
-18.07
-24.92
-21.01
-6.05
17.93
46.67
74.60
95.78
105.41
101.33
84.44
58.95
31.10
7.57
-5.94
-6.06
7.47
30.99
58.39
82.52
98.31
104.47
103.23
98.55
93.05
87.07
78.77
66.86
51.79
36.32
23.54
14.67
7.39
-2.91
-19.15
-40.16
-60.04
-70.75
-66.62
-47.86
-20.40
6.83
26.12
33.99
32.00
24.42
15.62
7.38
-1.05
-11.83
-26.20
-43.59
-61.32
-76.37
-86.44
-90.57
-89.95
-86.38
-81.98
-77.84
-73.95
-68.90
-60.83
-48.57
-31.82
-12.09
7.95
24.44
32.90
30.09
15.24
-9.08
-37.46
-63.79
-83.43
-94.58
-96.69
-90.17
-74.93
-51.25
-20.60
13.20
44.67
68.34
80.93
82.35
75.17
63.89
51.65
40.32
30.53
22.19
15.10
9.40
6.28
7.45
15.92
33.82
61.11
93.81
124.45
144.93
149.36
136.93
111.47
80.24
50.60
26.64
9.00
-5.11
-19.35
-35.78
-53.70
-69.77
-79.48
-78.60
-65.56
-42.24
-14.08
11.49
27.89
31.75
24.49
11.03
-2.91
-13.32
-19.22
-22.56
-25.56
-30.18
-36.58
-43.90
-51.45
-58.03
-62.95
-65.11
-63.62
-58.22
-49.87
-40.72
-32.79
-27.60
-25.42
-25.97
-28.93
-33.59
-38.57
-40.61
-35.80
-20.85
5.07
39.54
77.99
115.04
146.34
168.21
177.50
170.74
145.54
102.20
46.06
-12.40
-60.71
-88.41
-91.93
-75.34
-48.65
-22.99
-6.47
-1.71
-6.12
-14.16
-20.38
-21.69
-18.20
-12.35
-6.80
-2.24
2.76
11.03
23.81
39.38
52.60
56.79
47.68
25.60
-4.03
-33.73
-56.70
-70.18
-74.90
-73.54
-69.05
-63.79
-60.14
-61.11
-69.22
-84.67
-104.49
-121.99
-129.48
-121.82
-98.74
-65.29
-29.97
-0.46
18.90
28.10
30.45
29.55
27.36
24.12
18.86
11.48
3.79
-1.70
-2.70
0.90
7.76
16.13
25.32
35.40
46.13
56.24
63.33
65.46
63.29
60.64
61.91
69.32
80.32
88.59
88.21
77.82
62.03
48.81
44.27
48.92
57.66
62.65
58.40
43.91
22.64
-0.02
-20.23
-36.77
-50.66
-63.69
-76.26
-87.79
-96.41
-99.63
-94.94
-80.51
-56.69
-26.42
5.03
32.07
50.59
60.42
64.68
67.88
73.77
83.34
94.53
103.52
106.83
102.95
93.06
80.60
70.11
65.92
70.29
82.04
95.82
103.15
95.21
67.08
21.08
-32.40
-77.74
-100.81
-94.75
-63.40
-19.55
21.51
48.39
57.49
52.44
39.28
22.15
1.74
-23.07
-52.18
-82.27
-107.35
-121.03
-119.66
-103.37
-75.89
-43.71
-13.81
6.60
11.97
0.07
-26.14
-58.44
-85.82
-98.29
-91.28
-67.29
-34.20
-1.32
23.54
36.70
38.59
31.05
16.36
-3.79
-27.24
-50.15
-67.50
-74.89
-70.71
-57.61
-41.43
-29.05
-25.74
-33.36
-50.18
-71.74
-92.79
-108.85
-116.74
-115.60
-106.24
-90.49
-70.33
-47.03
-20.66
8.48
38.18
63.98
79.92
81.97
70.78
52.34
36.02
29.62
36.12
51.81
69.30
82.08
87.73
88.32
87.53
87.48
86.96
82.65
72.29
57.04
40.95
29.20
24.30
24.82
26.44
24.41
16.23
2.59
-13.58
-28.98
-41.34
-49.65
-53.95
-54.50
-51.87
-47.05
-40.87
-33.29
-23.69
-11.42
3.56
19.20
33.12
44.14
53.98
67.30
88.94
120.94
159.62
197.30
224.80
236.11
229.83
208.30
175.58
135.23
90.11
43.21
-1.26
-39.12
-67.23
-84.42
-92.17
-92.96
-89.64
-84.52
-79.96
-77.92
-79.90
-85.45
-91.67
-94.28
-89.23
-75.38
-54.78
-31.90
-11.44
2.91
9.51
7.77
-2.93
-22.66
-50.09
-81.51
-111.06
-133.07
-145.16
-150.04
-153.64
-162.65
-179.64
-202.04
-223.17
-235.62
-235.33
-222.13
-199.34
-170.29
-136.96
-99.63
-58.28
-14.51
27.97
64.82
92.91
111.74
122.85
128.76
131.56
132.21
131.70
131.94
135.32
143.75
157.12
172.31
184.26
187.37
177.79
154.50
119.12
75.09
26.85
-21.22
-64.88
-100.37
-125.28
-138.61
-140.84
-133.77
-119.68
-101.72
-82.47
-63.67
-46.52
-31.21
-18.15
-7.94
-2.01
-1.31
-6.09
-14.89
-25.76
-36.79
-47.00
-56.39
-64.79
-71.44
-73.87
-69.88
-58.69
-41.84
-22.94
-5.94
6.90
16.11
24.70
36.58
53.73
74.79
95.64
110.73
117.26
115.57
110.10
106.17
106.91
111.70
116.72
117.46
111.02
98.28
82.78
69.33
61.12
57.98
56.45
51.44
39.39
19.78
-4.15
-27.89
-48.08
-64.40
-78.20
-90.81
-101.60
-107.71
-106.63
-98.11
-85.92
-75.37
-70.13
-70.74
-73.96
-76.18
-74.82
-69.30
-59.82
-47.11
-31.20
-12.32
8.90
31.85
55.63
79.56
101.90
119.85
129.70
129.13
119.01
104.26
92.02
88.37
95.13
108.97
123.71
133.25
134.17
126.69
113.03
96.05
77.56
58.79
40.80
25.52
15.67
13.23
18.01
25.79
29.95
23.08
1.19
-34.97
-79.65
-124.91
-164.47
-195.30
-217.85
-233.62
-242.94
-244.03
-234.33
-212.35
-179.51
-139.68
-98.00
-58.87
-24.39
5.15
29.96
49.81
64.70
75.58
84.34
93.28
102.29
108.25
105.78
91.25
66.26
37.61
15.05
5.29
9.24
21.75
35.69
46.55
54.03
60.62
67.82
73.15
71.86
60.94
42.54
24.65
16.58
23.40
41.84
61.09
68.53
56.09
24.41
-17.95
-59.10
-89.10
-104.01
-105.39
-97.13
-81.82
-59.87
-31.09
2.82
36.17
61.42
72.72
69.68
58.64
48.77
47.03
53.64
61.71
61.66
47.01
18.34
-16.91
-49.25
-71.66
-83.04
-86.75
-88.03
-91.20
-98.34
-109.39
-123.19
-137.92
-151.39
-160.62
-162.14
-153.30
-133.25
-103.91
-69.15
-33.21
0.72
31.43
59.19
84.73
107.14
124.19
133.70
135.64
133.77
134.09
141.15
153.60
163.54
159.42
132.57
83.10
21.02
-37.06
-75.53
-85.97
-69.95
-37.22
-1.53
24.43
32.32
19.40
-10.63
-49.29
-85.05
-106.99
-108.43
-88.68
-53.16
-11.17
27.78
57.53
76.65
87.75
95.60
103.63
112.67
121.16
126.83
128.18
125.56
120.11
112.48
102.23
87.71
68.65
46.85
26.13
10.69
2.65
0.55
0.45
-1.50
-7.10
-14.79
-21.82
-25.91
-26.63
-25.49
-24.73
-26.38
-32.73
-46.77
-71.61
-108.84
-156.18
-205.41
-244.65
-263.04
-256.03
-228.63
-193.93
-166.42
-154.94
-158.57
-166.69
-166.20
-147.57
-109.57
-58.66
-4.37
45.98
90.01
128.63
163.13
192.07
211.68
218.42
212.04
196.55
178.07
161.67
148.79
137.55
125.15
111.11
97.68
87.33
79.94
70.60
52.29
20.49
-22.13
-65.74
-98.35
-112.51
-110.24
-101.41
-98.12
-107.59
-128.53
-153.26
-173.06
-182.61
-181.40
-172.01
-156.10
-132.50
-97.99
-49.75
11.03
78.24
141.25
188.98
213.84
214.06
194.52
164.22
132.71
106.31
87.26
74.32
65.83
61.12
60.00
61.47
61.99
56.37
40.07
12.51
-21.76
-54.46
-77.41
-86.32
-82.23
-70.91
-59.10
-51.80
-49.60
-49.28
-45.96
-35.57
-17.77
4.64
26.02
41.06
46.68
43.15
33.33
20.86
8.41
-3.38
-14.83
-26.89
-39.48
-51.22
-60.29
-65.97
-69.03
-70.93
-73.63
-78.14
-83.88
-89.21
-92.48
-92.98
-91.51
-90.45
-91.72
-96.45
-103.08
-108.14
-107.60
-97.82
-78.33
-51.49
-22.56
2.91
20.88
30.43
33.40
33.49
34.22
36.89
41.81
48.47
57.13
69.47
86.82
108.60
130.77
148.11
155.80
152.30
140.01
123.13
105.10
86.87
66.80
42.15
12.11
-21.59
-54.70
-81.85
-99.01
-103.36
-94.29
-72.27
-39.77
-0.87
38.59
72.88
97.62
111.68
117.07
116.98
114.71
112.18
110.01
108.54
107.78
107.61
106.25
100.53
87.34
66.32
41.22
18.94
5.38
1.28
1.02
-4.93
-24.37
-58.97
-103.73
-149.21
-187.08
-212.83
-226.79
-230.85
-226.63
-214.05
-193.29
-166.33
-138.13
-114.65
-99.84
-94.02
-93.94
-95.36
-95.24
-92.25
-86.43
-77.36
-63.68
-43.80
-16.75
16.23
51.55
84.56
111.43
129.87
139.93
143.23
142.70
141.52
142.22
145.99
151.42
154.98
151.68
137.90
113.13
80.55
45.93
15.39
-7.16
-21.14
-28.28
-30.14
-26.42
-15.27
4.26
29.98
55.02
71.25
73.05
60.24
38.96
17.18
1.37
-6.96
-10.48
-13.00
-16.61
-21.27
-25.07
-26.93
-27.28
-27.64
-28.83
-30.27
-30.65
-28.97
-26.13
-24.91
-28.84
-40.70
-59.75
-81.87
-100.71
-109.45
-104.21
-85.42
-57.90
-28.52
-3.23
15.47
29.28
41.75
56.30
73.16
89.81
103.00
110.62
113.18
112.44
109.60
103.75
92.52
74.14
49.71
24.43
5.24
-2.69
1.12
11.90
22.13
26.51
23.62
16.51
10.22
7.36
7.45
6.10
-2.29
-21.84
-53.31
-93.04
-134.02
-167.75
-187.23
-188.96
-174.09
-147.88
-117.73
-91.01
-72.56
-64.37
-64.40
-69.04
-74.24
-77.12
-76.37
-71.21
-60.55
-42.08
-14.03
22.89
62.79
95.69
111.14
103.26
74.67
34.22
-6.94
-41.82
-69.73
-94.01
-117.67
-139.17
-152.46
-150.57
-129.78
-91.75
-43.41
6.58
51.33
87.92
117.95
145.11
173.38
203.66
233.44
257.36
269.82
268.02
252.91
228.84
200.78
171.88
142.88
113.59
85.13
60.50
43.63
35.12
30.64
21.54
-0.31
-37.33
-84.30
-130.64
-166.04
-186.00
-193.02
-193.87
-194.36
-195.61
-193.44
-182.45
-160.08
-129.82
-99.18
-76.52
-66.76
-69.29
-79.49
-91.28
-100.53
-105.63
-106.91
-104.93
-99.69
-91.02
-79.44
-67.21
-56.37
-47.48
-38.29
-24.07
0.03
35.69
80.25
127.83
171.53
205.48
226.74
234.39
229.65
214.04
190.14
160.96
130.53
102.57
79.84
63.62
53.03
45.83
38.18
25.26
2.02
-34.30
-82.98
-138.07
-189.57
-227.13
-243.14
-236.77
-213.95
-184.80
-159.14
-142.32
-133.74
-128.10
-119.52
-103.66
-78.79
-45.63
-5.81
37.94
82.06
121.60
152.66
173.72
187.00
197.40
209.02
222.78
234.20
236.17
222.72
193.45
154.08
115.01
86.15
72.79
74.11
83.44
92.54
94.80
87.47
71.44
49.43
24.69
-0.62
-24.91
-47.32
-67.57
-85.95
-103.15
-119.03
-131.09
-134.92
-126.08
-102.66
-68.11
-31.34
-3.13
7.67
-1.52
-26.73
-59.08
-88.83
-107.58
-110.36
-95.65
-64.43
-20.81
28.65
74.68
107.68
120.06
108.43
75.06
27.06
-24.56
-67.99
-94.09
-98.94
-85.13
-60.70
-36.66
-22.66
-23.68
-37.64
-56.55
-69.39
-66.21
-43.16
-3.97
40.93
78.87
99.57
99.29
81.03
52.53
22.47
-3.63
-23.48
-37.27
-44.24
-42.52
-30.71
-10.60
12.16
30.05
37.80
36.22
31.99
33.97
47.04
68.71
89.76
98.83
89.94
65.11
34.27
9.34
-1.49
2.25
14.22
25.50
28.99
22.56
8.22
-10.76
-32.06
-55.48
-81.32
-108.55
-133.09
-149.30
-151.66
-137.39
-108.26
-70.30
-31.80
-0.55
18.80
25.98
23.85
17.13
9.62
2.70
-4.04
-11.89
-20.24
-25.72
-23.32
-9.38
16.23
49.10
82.35
109.90
129.01
140.80
147.96
151.38
149.08
137.48
114.38
81.75
45.78
13.84
-9.41
-24.01
-33.90
-44.23
-58.53
-77.41
-99.00
-119.67
-135.60
-143.48
-140.67
-126.50
-103.04
-75.11
-49.86
-33.25
-27.42
-29.84
-35.24
-38.69
-38.88
-38.45
-41.84
-50.87
-62.15
-67.92
-59.89
-34.53
4.14
45.99
79.89
99.90
107.73
110.90
117.43
130.36
146.56
159.68
164.61
161.01
153.39
147.69
147.78
153.87
162.00
166.65
162.73
147.77
122.77
92.22
62.09
37.94
22.48
15.61
15.09
18.14
23.59
31.17
40.43
47.72
46.67
30.12
-6.03
-58.58
-118.33
-172.88
-212.25
-232.05
-234.91
-227.75
-218.73
-214.25
-216.89
-225.40
-235.17
-239.71
-232.93
-211.19
-174.41
-125.97
-72.17
-19.75
25.83
62.16
88.77
106.82
118.36
125.70
131.61
137.89
145.09
150.38
149.09
136.46
110.62
74.55
34.87
-0.18
-25.07
-38.00
-41.48
-39.77
-36.59
-33.57
-29.91
-24.32
-16.20
-7.19
-0.86
-1.22
-10.76
-27.37
-44.41
-52.43
-44.58
-20.22
12.69
41.26
53.94
46.43
24.83
1.10
-12.47
-10.31
5.38
27.01
47.05
61.92
71.89
79.41
84.95
86.52
80.24
63.74
38.11
8.18
-19.49
-40.15
-52.30
-58.47
-63.47
-71.19
-83.42
-98.40
-112.64
-121.40
-121.56
-112.30
-96.07
-78.00
-63.55
-57.04
-59.11
-67.23
-76.08
-80.69
-77.51
-65.15
-44.75
-18.34
10.53
38.24
60.86
75.67
82.28
82.99
82.10
83.95
91.00
102.37
115.05
124.50
126.42
118.68
101.08
76.23
47.50
18.48
-9.05
-34.87
-59.23
-82.05
-101.08
-113.11
-115.66
-108.73
-94.90
-77.97
-60.88
-43.61
-24.41
-1.08
25.64
52.23
73.05
82.47
78.38
62.26
39.98
18.95
5.94
3.51
8.93
14.89
12.30
-4.74
-36.64
-76.98
-116.09
-144.58
-157.96
-157.23
-146.70
-131.60
-114.35
-94.53
-70.37
-41.13
-8.89
22.43
48.54
66.71
76.28
78.45
74.36
64.95
51.42
35.92
21.92
12.23
7.96
6.92
5.62
2.34
-1.61
-2.39
3.10
14.91
28.64
38.94
42.41
40.33
37.55
38.50
45.19
55.90
67.59
78.32
88.00
97.59
106.47
112.53
112.99
106.68
94.81
80.32
65.91
52.90
41.37
31.30
23.18
17.67
14.27
10.66
3.61
-9.20
-27.55
-48.60
-68.78
-85.14
-96.80
-104.40
-108.60
-109.26
-104.45
-92.56
-72.82
-46.97
-19.01
6.43
25.58
37.11
41.23
39.29
32.10
19.83
2.88
-16.36
-32.99
-41.42
-38.04
-24.11
-4.53
15.30
32.82
49.31
67.96
90.03
112.64
130.37
137.62
132.03
115.11
91.04
65.24
43.04
29.83
29.78
44.68
71.13
100.81
122.98
128.95
116.06
88.64
55.82
26.87
8.09
0.31
-0.44
-0.73
-8.12
-27.58
-60.17
-102.26
-146.99
-186.67
-215.94
-232.53
-236.54
-228.98
-209.57
-178.37
-137.24
-91.83
-50.96
-23.21
-13.84
-21.97
-41.94
-66.02
-88.03
-105.38
-118.14
-127.07
-131.84
-130.90
-122.12
-105.06
-80.85
-52.08
-22.46
5.09
28.18
45.20
55.91
61.23
63.66
66.70
73.84
87.14
106.28
127.63
145.91
155.88
154.91
144.15
127.66
110.60
95.82
83.11
70.04
54.34
35.97
17.52
2.05
-9.50
-18.11
-26.12
-33.61
-37.90
-34.78
-21.61
-0.84
20.24
32.15
27.80
6.76
-24.13
-53.43
-70.42
-69.20
-51.39
-25.07
-1.00
11.16
6.93
-11.99
-39.77
-69.41
-95.39
-114.58
-125.10
-124.76
-111.18
-83.86
-46.02
-4.44
31.85
56.35
67.16
67.47
63.51
60.97
62.86
68.80
77.07
85.65
93.00
97.28
96.33
87.98
71.26
48.08
22.64
-0.08
-16.44
-26.32
-32.37
-38.21
-46.50
-57.75
-69.74
-79.43
-84.28
-82.90
-75.28
-62.34
-45.77
-27.98
-12.27
-1.67
2.10
0.52
-1.64
1.36
12.69
30.34
48.39
59.47
59.70
49.96
34.64
18.62
3.40
-11.83
-28.13
-43.96
-53.83
-51.62
-35.37
-10.00
14.47
27.66
25.27
11.67
-2.72
-7.96
-0.19
16.25
31.61
36.49
26.99
6.85
-15.47
-31.47
-36.69
-31.59
-19.56
-3.81
14.20
33.27
50.69
61.26
58.84
41.07
11.33
-21.29
-45.62
-54.37
-47.00
-30.14
-13.67
-6.40
-11.79
-27.18
-46.09
-61.17
-67.16
-62.58
-49.68
-32.35
-13.98
3.86
21.61
39.87
57.58
71.51
77.63
73.74
62.04
49.09
42.37
46.78
61.82
81.86
98.86
106.33
101.98
87.51
67.48
46.25
27.52
12.79
2.72
-3.12
-5.66
-6.07
-5.60
-5.31
-5.81
-7.37
-10.51
-15.79
-23.53
-33.45
-43.29
-49.61
-49.09
-40.38
-24.42
-4.72
14.59
30.60
42.37
51.14
59.07
67.55
76.94
85.68
91.11
89.07
75.65
47.73
5.86
-45.70
-98.87
-144.65
-176.12
-191.09
-192.00
-183.59
-169.99
-152.18
-129.28
-99.92
-64.43
-25.76
12.04
45.87
75.22
101.08
125.21
148.19
169.49
187.24
198.93
202.42
196.63
182.17
161.45
137.71
113.16
87.53
58.67
24.15
-14.43
-51.32
-77.83
-88.12
-83.31
-71.69
-64.44
-68.74
-83.62
-100.44
-109.61
-106.08
-91.97
-74.48
-60.61
-53.03
-49.40
-45.15
-36.18
-21.71
-3.77
13.85
27.07
32.51
28.39
15.64
-2.34
-19.96
-32.24
-36.67
-33.50
-25.44
-14.70
-2.29
12.25
28.87
45.50
58.07
62.25
55.71
39.50
17.71
-5.00
-24.40
-38.24
-45.86
-47.16
-42.70
-33.47
-21.39
-9.41
-0.36
3.51
2.00
-3.59
-10.99
-17.92
-23.17
-26.51
-28.47
-30.00
-31.83
-34.22
-36.54
-36.87
-32.87
-23.15
-8.18
8.81
22.93
29.20
25.27
12.78
-3.17
-16.26
-21.69
-17.62
-6.07
8.41
19.72
21.68
10.46
-14.82
-50.06
-87.98
-119.72
-139.35
-145.94
-143.25
-137.57
-132.92
-128.94
-122.04
-108.35
-87.26
-62.72
-40.48
-24.66
-14.81
-5.55
9.00
32.38
63.03
95.78
125.53
150.30
172.17
194.26
218.51
242.19
259.20
263.67
253.47
231.85
204.84
177.37
149.10
115.05
68.36
6.01
-67.59
-141.38
-201.68
-238.11
-247.72
-235.70
-210.70
-180.01
-145.67
-105.37
-56.52
0.17
58.02
107.56
140.51
154.70
155.20
151.33
151.46
157.37
163.69
160.39
138.66
95.43
35.47
-30.91
-92.51
-140.87
-172.56
-187.19
-185.51
-168.13
-136.54
-95.48
-54.09
-24.01
-14.70
-29.05
-61.19
-98.41
-126.58
-136.46
-127.04
-104.36
-78.15
-56.60
-43.20
-36.56
-32.32
-26.25
-15.36
1.17
23.29
50.52
82.35
117.47
153.21
185.90
211.28
226.91
232.09
227.56
214.41
192.84
162.77
124.84
81.78
38.05
-0.83
-30.75
-50.52
-62.00
-69.32
-77.19
-89.23
-105.89
-124.75
-142.03
-154.29
-160.06
-159.24
-152.43
-138.92
-116.99
-85.36
-45.87
-4.15
31.65
54.74
64.22
65.32
67.31
77.87
98.09
122.03
140.10
143.82
129.97
101.80
66.42
32.13
5.65
-9.40
-11.74
-2.23
17.21
42.99
70.36
93.10
105.05
101.49
81.29
48.18
9.13
-27.79
-56.50
-75.20
-86.06
-93.18
-99.68
-105.87
-109.04
-105.96
-95.79
-80.89
-66.79
-58.84
-59.35
-66.78
-76.42
-83.37
-84.96
-82.04
-77.20
-73.17
-70.73
-69.24
-67.43
-65.03
-63.06
-62.84
-64.92
-68.39
-72.26
-75.66
-79.17
-83.50
-88.54
-93.24
-95.84
-95.16
-91.42
-86.40
-82.31
-81.05
-83.53
-88.91
-95.02
-98.03
-93.65
-78.40
-50.90
-13.05
30.46
73.31
110.05
138.00
158.63
175.84
193.55
212.74
229.31
236.75
228.89
204.70
168.94
130.62
98.56
77.44
66.75
62.32
60.19
58.67
58.74
61.38
66.15
70.52
71.56
68.42
62.40
56.59
53.44
54.15
58.02
63.52
68.18
69.02
64.35
54.29
41.90
32.03
29.52
36.61
50.91
66.75
77.50
78.37
67.85
46.74
16.58
-21.81
-67.19
-115.96
-160.48
-191.47
-201.44
-189.11
-160.79
-127.63
-100.76
-86.72
-86.09
-94.44
-106.52
-118.57
-129.56
-139.14
-145.74
-146.85
-139.74
-123.94
-101.26
-74.86
-47.10
-18.46
11.57
43.62
76.75
108.61
135.70
154.20
161.63
157.58
144.05
124.03
101.28
78.62
57.38
37.77
19.13
0.76
-17.56
-35.43
-53.00
-71.11
-91.56
-115.34
-140.68
-163.06
-176.52
-176.23
-160.61
-132.04
-95.19
-54.60
-12.85
29.78
73.35
117.26
158.51
192.67
216.02
226.46
224.70
212.31
191.20
162.55
128.45
93.01
62.24
42.55
37.90
47.29
64.07
77.98
79.47
64.54
36.98
6.33
-16.27
-24.29
-19.13
-9.12
-4.24
-10.08
-24.65
-39.03
-43.15
-32.02
-10.15
10.55
17.24
3.66
-25.65
-58.19
-79.71
-83.14
-71.32
-54.77
-44.33
-44.70
-52.37
-58.75
-56.97
-46.40
-33.35
-27.45
-35.70
-58.89
-90.50
-119.87
-136.26
-133.42
-111.55
-77.90
-44.27
-22.65
-20.72
-38.18
-67.67
-97.71
-118.08
-123.09
-112.44
-89.33
-58.54
-25.92
2.70
21.30
25.90
17.04
1.44
-9.93
-6.30
17.37
57.27
102.52
140.13
161.21
164.79
156.51
144.61
135.46
131.20
130.05
128.60
123.95
114.35
98.63
75.87
46.51
12.58
-21.65
-51.48
-73.80
-88.09
-95.81
-97.77
-92.83
-78.09
-52.60
-20.97
6.45
17.33
4.00
-31.05
-74.77
-109.23
-120.05
-103.60
-68.18
-29.27
-1.98
6.07
-3.63
-22.60
-40.61
-50.65
-50.18
-39.93
-21.43
4.79
39.07
80.38
124.73
164.90
191.86
198.17
180.49
141.41
88.62
32.25
-18.06
-56.44
-81.39
-95.32
-102.09
-104.81
-103.66
-96.70
-81.23
-56.27
-24.15
9.76
38.29
55.27
57.50
45.42
22.82
-4.21
-28.54
-43.16
-43.46
-29.04
-4.42
21.76
39.90
43.84
33.67
15.82
-1.23
-11.79
-16.10
-19.36
-26.96
-39.97
-53.59
-59.97
-53.59
-35.24
-11.78
7.97
17.99
18.66
15.30
14.95
22.46
37.88
57.56
76.35
91.02
101.13
108.11
113.78
118.64
121.59
120.15
112.33
97.37
76.03
50.77
25.02
2.54
-12.86
-18.50
-13.69
-0.67
15.78
29.94
37.49
38.00
35.02
33.30
35.81
41.14
45.12
43.33
34.08
19.01
1.73
-14.27
-28.33
-41.51
-56.77
-76.80
-103.69
-137.83
-177.49
-218.60
-254.68
-278.89
-286.55
-277.21
-254.86
-226.21
-196.95
-169.04
-141.23
-110.83
-77.11
-41.54
-8.14
19.18
37.69
46.58
46.70
39.69
28.58
16.99
9.33
8.93
17.00
32.34
51.38
71.12
89.60
107.20
124.31
139.89
149.65
148.00
131.96
103.98
73.47
52.42
50.22
67.44
94.78
117.71
122.80
104.96
68.71
25.38
-13.66
-41.69
-58.93
-69.10
-75.46
-78.23
-74.39
-61.73
-41.05
-17.82
0.39
7.43
2.07
-11.24
-24.39
-28.80
-19.51
3.71
35.81
69.17
96.88
114.83
123.27
125.49
125.90
127.45
130.90
135.22
138.16
138.09
134.29
127.04
116.28
101.91
83.11
60.07
34.13
7.70
-15.96
-34.56
-47.35
-55.29
-60.24
-64.03
-68.04
-73.18
-79.58
-86.81
-94.38
-101.68
-109.11
-117.66
-129.19
-145.16
-165.55
-188.03
-208.04
-220.85
-223.31
-215.05
-198.71
-177.52
-153.79
-127.80
-98.48
-65.31
-29.96
4.12
33.03
54.61
69.02
78.80
87.03
95.43
103.41
108.67
108.17
99.77
83.71
61.84
37.36
13.46
-7.37
-22.29
-28.92
-25.11
-10.62
11.65
35.83
55.17
64.74
63.82
56.12
47.25
42.27
42.33
45.36
47.34
45.19
37.72
25.34
9.38
-9.47
-30.60
-53.04
-74.89
-93.70
-106.65
-111.16
-105.61
-89.46
-64.61
-35.00
-6.02
17.17
31.90
38.76
41.13
42.50
44.18
44.17
38.95
26.84
10.45
-2.18
-1.81
17.55
54.20
98.50
136.68
157.85
158.09
141.92
118.85
97.61
83.34
75.99
73.10
72.00
71.49
71.04
69.45
64.63
54.14
36.99
14.94
-8.31
-28.99
-45.16
-57.66
-69.21
-82.63
-99.16
-117.36
-133.14
-141.65
-138.87
-124.32
-101.72
-77.96
-60.77
-55.23
-60.98
-72.11
-78.97
-72.57
-49.22
-12.23
28.28
60.36
75.30
71.45
54.09
32.08
13.44
2.36
-1.20
0.81
6.51
15.24
26.14
37.29
44.70
44.71
35.66
19.49
1.18
-14.10
-23.25
-27.19
-29.56
-34.52
-43.87
-55.79
-65.39
-67.77
-60.87
-47.78
-35.83
-32.58
-42.15
-62.46
-85.55
-102.33
-106.72
-98.64
-82.39
-63.14
-43.60
-22.66
1.54
29.09
55.93
75.93
83.36
76.60
58.62
35.37
13.44
-2.65
-10.68
-10.46
-1.98
14.22
37.59
66.43
97.51
126.91
150.21
163.21
162.45
146.52
117.04
78.81
39.70
7.59
-11.98
-17.84
-12.65
-1.63
9.96
18.29
20.99
16.75
4.97
-13.39
-35.17
-54.47
-64.61
-61.28
-44.64
-19.74
5.82
24.81
34.16
34.79
30.43
24.71
18.70
11.19
-0.42
-17.42
-38.06
-58.32
-73.92
-82.46
-84.91
-84.34
-84.02
-85.04
-85.24
-80.98
-69.41
-51.10
-29.53
-9.84
5.02
15.54
25.67
39.88
60.03
83.52
103.66
112.84
106.27
83.58
49.77
13.02
-18.00
-37.38
-43.36
-38.43
-27.36
-14.91
-3.76
5.25
12.28
16.95
17.99
14.26
6.55
-2.03
-7.78
-8.74
-6.83
-7.84
-17.46
-38.24
-66.38
-93.36
-109.88
-109.88
-93.45
-66.38
-37.45
-14.34
-0.93
3.63
4.00
5.94
13.75
29.24
50.97
74.96
96.55
111.36
116.41
110.31
94.28
71.44
47.21
27.36
16.55
16.62
25.55
39.33
53.41
65.13
74.24
81.93
89.48
97.00
103.60
108.31
110.88
111.93
112.11
110.78
106.12
95.74
78.26
54.32
26.15
-2.26
-27.51
-47.44
-61.73
-72.29
-82.04
-93.86
-108.82
-125.88
-141.63
-152.62
-157.05
-155.68
-151.27
-146.06
-141.14
-135.66
-128.55
-119.35
-108.94
-98.24
-87.09
-74.55
-59.52
-42.34
-24.19
-6.78
10.51
29.95
54.25
84.50
117.66
148.32
170.36
181.04
181.56
175.80
166.85
155.03
137.77
111.82
76.43
35.02
-5.84
-39.37
-61.39
-71.56
-72.83
-68.87
-62.33
-53.34
-40.78
-23.58
-2.02
21.01
41.26
53.85
56.19
48.01
32.39
13.98
-2.63
-14.12
-19.66
-19.28
-14.13
-4.75
7.88
22.68
37.64
50.29
58.71
62.32
61.90
58.69
52.47
41.19
21.88
-7.11
-45.01
-87.32
-128.09
-162.04
-186.23
-201.24
-209.11
-212.19
-211.22
-205.98
-195.91
-181.05
-162.11
-139.87
-114.46
-85.57
-54.34
-24.24
-1.28
8.52
2.77
-14.91
-35.11
-47.00
-43.62
-25.15
1.66
28.56
49.65
64.42
75.20
84.12
89.61
87.39
73.63
47.96
15.13
-17.01
-40.42
-50.58
-46.78
-31.66
-9.63
14.52
35.99
51.58
59.96
62.97
64.73
69.84
81.18
97.58
114.73
126.38
127.83
117.31
96.54
69.21
38.88
9.28
-16.54
-35.15
-43.37
-39.24
-23.62
-1.23
21.07
36.66
41.66
36.10
23.81
8.92
-4.90
-15.98
-23.73
-27.08
-25.32
-17.97
-6.61
5.85
15.53
19.62
16.89
7.71
-6.35
-23.77
-42.18
-58.43
-68.49
-68.70
-57.73
-37.33
-12.25
11.61
29.47
38.89
39.92
34.40
24.88
14.10
4.17
-4.00
-10.37
-16.25
-22.87
-30.18
-37.13
-41.97
-43.52
-41.77
-37.51
-31.62
-24.59
-16.31
-7.09
2.21
10.29
16.78
22.24
28.08
35.84
45.68
56.41
66.04
72.84
75.75
74.32
68.63
58.86
45.82
31.40
18.38
9.45
6.03
7.26
10.40
11.36
7.27
-2.66
-16.46
-30.32
-40.32
-43.80
-40.35
-31.64
-20.37
-8.69
2.39
12.52
21.12
26.45
25.31
14.95
-4.59
-29.42
-51.91
-64.49
-62.93
-48.94
-29.30
-12.40
-4.31
-5.64
-12.97
-21.29
-27.18
-30.74
-33.48
-36.50
-38.53
-37.18
-30.63
-19.74
-7.38
3.55
12.03
19.50
27.72
37.53
46.96
52.90
52.93
47.07
37.92
28.27
19.54
9.95
-3.79
-24.24
-51.58
-83.01
-113.94
-139.09
-153.87
-155.30
-143.60
-122.16
-96.75
-74.15
-59.71
-55.58
-60.60
-71.00
-81.46
-87.21
-84.43
-70.87
-47.00
-15.45
17.80
45.62
61.60
63.47
55.11
44.74
41.45
50.08
68.80
89.53
102.01
99.99
84.25
62.56
44.42
35.66
35.80
40.35
44.64
48.28
55.05
68.68
88.91
110.34
125.32
128.80
122.47
113.32
108.51
110.68
115.37
114.09
99.26
69.16
28.35
-14.75
-52.12
-79.31
-96.20
-106.49
-114.48
-123.25
-133.19
-141.90
-145.02
-137.22
-114.91
-76.94
-26.08
31.60
87.10
131.03
155.91
158.86
142.88
116.12
89.68
72.56
67.92
72.18
76.44
71.37
52.12
20.30
-17.66
-54.18
-84.75
-109.08
-129.50
-147.26
-160.33
-164.84
-157.55
-139.65
-117.24
-98.63
-90.27
-92.72
-101.97
-111.54
-117.18
-118.01
-115.81
-111.21
-103.02
-88.23
-64.54
-33.40
0.15
29.55
49.89
60.25
63.57
65.24
70.50
82.97
103.48
130.22
159.54
186.77
207.52
219.08
221.54
217.46
210.95
204.92
198.71
188.19
166.68
129.38
76.22
13.87
-46.50
-92.95
-117.75
-119.90
-105.40
-84.83
-69.25
-65.76
-75.01
-91.32
-105.31
-107.84
-93.95
-63.60
-21.98
23.09
63.40
92.38
105.84
102.12
82.01
48.84
8.43
-31.60
-63.80
-82.54
-86.14
-76.59
-58.36
-36.99
-17.62
-3.49
5.35
11.81
20.94
37.10
61.28
90.26
116.99
134.79
140.28
135.44
125.63
115.99
107.94
98.19
81.35
53.68
16.27
-25.45
-64.48
-96.10
-120.04
-139.63
-159.05
-179.69
-199.18
-211.92
-212.41
-198.70
-174.11
-146.32
-123.62
-111.04
-107.47
-107.54
-105.00
-97.11
-86.59
-78.85
-77.99
-82.60
-86.09
-79.52
-56.83
-18.38
29.69
78.56
121.17
153.87
177.00
192.12
200.61
201.44
192.46
171.88
139.80
100.20
59.26
23.85
-2.11
-18.82
-30.09
-40.92
-53.98
-68.27
-79.06
-81.90
-74.70
-59.07
-39.49
-20.33
-4.00
9.63
21.47
32.56
43.20
53.19
62.09
69.79
75.46
76.57
69.65
51.30
21.60
-15.27
-50.98
-75.93
-83.02
-69.66
-38.65
3.88
50.15
92.72
125.37
143.84
146.68
136.16
118.67
102.94
96.24
100.48
109.98
114.45
104.25
76.52
36.91
-3.03
-32.35
-46.54
-48.82
-47.08
-48.34
-55.50
-66.65
-78.59
-89.90
-101.70
-115.73
-131.45
-145.19
-151.77
-147.57
-133.00
-112.18
-90.59
-72.93
-61.77
-58.07
-61.45
-70.87
-84.37
-99.42
-112.80
-122.05
-125.70
-123.98
-118.11
-109.68
-99.68
-88.82
-77.77
-67.59
-60.08
-56.29
-56.51
-58.93
-60.34
-57.98
-49.85
-36.08
-17.64
5.02
32.52
66.80
109.09
157.54
206.43
247.71
273.71
280.58
269.57
246.74
220.41
197.32
180.97
170.27
161.42
149.71
132.73
110.94
87.72
67.53
53.37
45.14
38.62
27.98
7.31
-25.92
-68.75
-113.92
-151.19
-172.19
-173.51
-158.29
-134.87
-113.05
-99.51
-95.59
-98.26
-102.16
-103.63
-101.10
-95.47
-88.25
-80.79
-75.61
-75.74
-84.38
-102.24
-126.09
-147.97
-158.25
-149.80
-120.97
-76.76
-25.31
24.42
66.25
96.73
114.93
122.24
121.86
119.31
120.50
130.18
148.95
172.49
192.87
202.48
198.13
182.29
161.86
143.30
128.70
114.27
93.56
62.48
22.35
-19.18
-52.60
-71.12
-74.40
-68.64
-62.73
-63.06
-69.83
-77.90
-79.56
-69.06
-45.50
-12.73
21.67
50.04
66.08
67.20
54.56
32.31
6.17
-18.71
-39.29
-54.99
-66.62
-75.74
-83.09
-88.21
-90.14
-88.04
-82.12
-73.62
-64.32
-54.98
-45.82
-36.33
-26.19
-15.52
-4.47
7.07
19.61
32.16
42.06
45.44
39.37
24.99
6.99
-7.42
-13.42
-10.78
-4.82
-2.61
-8.21
-19.73
-29.82
-30.71
-18.74
2.27
23.56
35.83
33.08
14.96
-14.27
-48.22
-80.75
-107.11
-124.74
-132.11
-129.44
-118.26
-100.69
-79.46
-56.07
-31.26
-5.02
21.67
46.40
65.61
76.25
77.33
70.64
60.61
51.63
47.15
48.04
52.90
58.93
63.64
66.43
67.70
68.87
70.96
73.53
75.05
73.60
67.51
56.14
39.79
18.56
-6.41
-32.63
-55.92
-70.35
-70.90
-56.38
-31.12
-3.66
16.93
26.03
25.65
23.83
30.29
51.32
86.45
127.93
164.39
184.67
182.85
159.10
119.43
72.42
26.06
-14.21
-45.85
-68.47
-83.39
-91.69
-94.86
-94.02
-89.45
-81.35
-69.54
-54.55
-38.45
-24.28
-15.00
-11.78
-13.14
-16.17
-18.18
-18.38
-17.44
-16.18
-14.12
-9.65
-1.70
8.65
17.68
20.73
15.44
3.16
-11.06
-21.30
-23.65
-18.38
-9.20
-1.49
-0.05
-6.34
-18.03
-29.55
-34.53
-28.87
-13.09
7.42
23.39
26.23
11.51
-18.31
-53.95
-82.59
-93.16
-80.72
-48.46
-5.04
38.75
74.49
97.61
107.88
107.16
97.96
82.59
63.39
43.82
28.11
20.26
21.38
29.77
41.20
51.24
57.18
58.50
56.62
53.06
48.91
43.78
37.26
29.37
21.36
15.16
11.73
9.45
4.29
-7.79
-28.01
-53.52
-77.76
-94.26
-99.00
-92.58
-78.74
-62.27
-46.51
-33.06
-22.65
-16.34
-16.55
-24.85
-41.06
-61.47
-80.14
-90.84
-89.58
-76.38
-55.19
-32.75
-16.18
-10.42
-16.23
-29.65
-43.14
-49.00
-42.42
-23.16
4.30
33.46
58.65
76.46
86.61
90.56
90.47
87.99
83.84
77.88
69.67
58.71
44.82
28.67
10.96
-7.03
-24.50
-41.33
-57.52
-72.65
-84.79
-90.54
-86.22
-70.00
-44.18
-14.38
11.92
28.25
31.55
22.15
3.43
-19.61
-41.93
-59.54
-70.09
-73.01
-68.87
-59.80
-48.19
-36.34
-26.07
-18.88
-16.37
-19.65
-29.35
-44.16
-61.06
-75.93
-84.99
-86.86
-82.07
-72.75
-61.30
-49.94
-40.21
-32.98
-28.67
-26.64
-25.45
-23.28
-18.07
-9.05
2.62
14.55
24.19
30.71
35.67
42.20
53.39
70.39
92.10
115.71
138.73
159.90
178.84
195.78
209.66
217.56
215.93
201.91
175.90
141.76
106.21
75.98
54.83
42.30
34.20
24.78
9.94
-10.82
-34.08
-54.74
-69.31
-77.64
-83.20
-89.73
-98.88
-109.12
-116.67
-118.71
-114.96
-107.36
-98.07
-88.17
-76.83
-62.67
-45.83
-28.16
-12.78
-1.90
4.12
6.53
7.37
7.65
7.80
7.66
7.12
5.81
3.35
-0.99
-7.09
-13.53
-18.09
-18.35
-13.73
-5.54
3.15
9.41
11.78
10.94
9.08
7.63
6.96
5.04
-0.38
-10.91
-26.42
-44.53
-61.69
-73.88
-78.88
-75.87
-66.15
-51.70
-34.02
-14.40
6.57
27.75
47.40
62.49
70.34
69.65
61.43
49.99
40.90
39.72
48.76
66.13
87.34
107.40
123.90
138.17
153.99
174.23
198.34
220.52
232.15
225.80
199.05
156.47
106.90
60.46
24.07
0.49
-11.61
-15.53
-15.23
-15.94
-23.20
-41.87
-73.75
-115.63
-159.26
-194.42
-213.16
-213.04
-198.00
-174.92
-150.24
-127.36
-107.00
-89.56
-76.89
-71.52
-74.57
-83.31
-90.96
-89.74
-74.54
-46.34
-11.59
20.60
42.57
51.04
47.55
37.43
26.71
20.81
23.07
34.06
52.00
72.85
91.10
101.60
100.88
88.70
68.09
44.42
22.88
6.64
-4.54
-13.61
-24.58
-40.09
-60.20
-82.39
-102.56
-116.63
-121.84
-117.44
-104.12
-83.38
-56.72
-26.12
5.35
33.58
54.33
64.99
66.04
61.35
56.84
58.00
67.45
84.16
104.07
122.30
134.79
139.94
137.56
128.28
112.63
91.40
66.71
41.72
19.97
4.27
-3.87
-5.30
-2.48
1.34
2.21
-3.45
-18.25
-42.18
-72.32
-102.39
-125.41
-136.12
-133.12
-119.68
-101.87
-87.00
-81.07
-87.67
-106.97
-135.21
-165.19
-188.02
-197.57
-192.84
-179.25
-165.90
-160.63
-165.40
-174.98
-180.28
-173.50
-153.06
-123.48
-92.19
-64.46
-39.75
-13.38
19.69
60.26
104.13
143.80
174.12
194.98
211.76
231.13
255.93
282.30
300.38
300.14
276.33
232.33
178.18
125.81
84.34
56.02
38.03
24.54
10.67
-5.79
-23.92
-40.45
-51.82
-54.65
-47.38
-30.53
-6.87
18.54
39.53
51.13
51.64
43.48
32.75
26.37
29.28
42.09
60.96
78.49
86.43
78.74
53.55
14.95
-28.37
-65.24
-86.46
-88.64
-75.05
-54.84
-38.71
-34.85
-45.44
-66.55
-90.83
-110.83
-121.68
-121.83
-111.95
-94.13
-70.89
-45.96
-24.03
-10.28
-8.30
-18.51
-37.16
-57.63
-72.80
-77.34
-70.00
-53.66
-33.84
-16.16
-4.14
2.10
4.89
7.49
12.80
21.32
31.69
41.69
49.28
54.42
58.91
65.86
77.79
95.52
117.92
142.30
165.44
184.18
196.24
199.89
194.92
182.30
164.56
145.44
129.02
117.47
110.08
103.74
93.93
77.58
54.56
28.27
4.27
-12.52
-20.78
-24.27
-30.40
-47.24
-79.57
-125.82
-178.40
-226.56
-260.50
-274.88
-270.43
-252.09
-225.96
-196.26
-164.08
-128.84
-91.18
-55.14
-27.44
-15.29
-22.44
-46.93
-81.03
-114.18
-136.67
-142.77
-131.79
-106.23
-70.55
-29.73
11.50
47.85
74.25
87.11
86.32
76.19
64.00
57.34
60.38
71.64
85.21
94.01
93.22
83.01
68.49
56.63
52.73
57.35
66.24
73.07
72.42
61.88
42.94
19.51
-3.96
-23.97
-38.71
-48.59
-55.36
-60.64
-65.19
-68.78
-69.87
-67.64
-62.33
-55.83
-50.28
-46.86
-45.07
-42.77
-38.30
-31.30
-23.15
-14.44
-3.81
12.50
37.60
70.52
105.01
130.49
137.15
121.21
88.06
50.17
21.75
11.95
20.56
39.03
55.27
60.22
51.25
33.00
13.76
1.08
-1.40
4.39
12.84
16.97
11.85
-3.22
-23.67
-41.16
-46.90
-34.37
-2.72
43.09
93.15
136.90
165.74
174.99
164.24
136.22
96.69
53.00
13.98
-12.74
-22.56
-15.84
1.40
19.62
28.80
23.29
3.83
-22.38
-45.31
-56.72
-53.64
-39.73
-22.44
-9.11
-3.09
-2.90
-3.37
0.82
11.80
27.33
41.48
47.29
38.35
10.54
-37.54
-104.12
-183.60
-267.30
-343.31
-399.10
-423.97
-412.80
-368.43
-301.36
-226.78
-158.88
-106.40
-70.28
-45.60
-25.95
-7.48
9.34
22.59
31.86
41.11
56.89
84.10
121.64
161.73
193.76
210.60
213.41
211.19
215.27
232.15
258.42
281.39
285.07
259.38
204.86
133.78
63.70
9.54
-22.67
-37.18
-43.54
-50.02
-58.09
-62.82
-56.73
-36.26
-5.91
22.75
35.19
21.29
-20.45
-81.67
-147.45
-201.63
-231.99
-233.91
-210.41
-169.99
-122.51
-75.75
-34.41
-0.23
25.86
42.81
49.16
45.43
34.85
24.34
21.47
30.80
51.28
75.95
95.05
100.51
90.29
68.25
41.61
16.96
-2.96
-18.51
-32.15
-45.51
-58.03
-66.98
-68.90
-61.58
-45.04
-21.88
4.43
30.35
52.71
68.47
74.59
69.09
52.06
27.34
1.41
-17.94
-25.08
-18.52
-1.46
19.41
36.54
44.20
39.99
24.47
1.62
-21.97
-38.49
-40.99
-26.86
0.97
34.25
64.19
85.92
100.93
115.17
133.87
156.76
177.18
185.97
176.92
151.15
116.35
82.34
56.24
39.42
28.51
17.87
3.08
-17.76
-43.64
-71.33
-96.34
-113.84
-120.08
-113.55
-96.48
-74.21
-53.32
-39.28
-34.67
-38.76
-47.77
-57.63
-65.43
-70.99
-76.68
-85.91
-101.07
-121.88
-144.73
-163.02
-169.56
-158.98
-129.22
-83.05
-27.58
26.95
69.81
92.65
92.81
73.74
44.05
14.57
-6.16
-14.27
-11.43
-2.36
7.83
15.62
19.39
18.34
11.31
-3.32
-25.35
-51.67
-76.36
-93.60
-100.48
-98.20
-91.16
-82.64
-72.91
-59.31
-38.99
-13.38
11.17
26.21
27.08
15.87
1.08
-7.24
-2.83
13.44
34.67
52.70
61.49
60.40
53.05
45.79
44.14
50.93
65.79
85.82
108.06
130.24
151.58
170.73
184.21
186.20
170.70
136.74
90.38
44.50
13.37
5.24
17.86
39.28
53.91
49.63
23.37
-19.86
-70.19
-117.54
-154.25
-176.02
-182.17
-175.08
-160.58
-146.50
-140.22
-144.94
-157.47
-169.55
-171.24
-155.83
-122.37
-75.90
-24.85
21.82
57.57
80.00
90.16
91.82
90.16
89.45
92.25
98.31
105.56
110.68
111.07
105.01
92.87
75.99
56.67
38.00
23.05
14.90
15.34
24.08
37.95
51.63
59.54
57.38
44.64
24.79
4.54
-9.86
-15.85
-15.84
-15.64
-21.40
-36.00
-56.26
-75.21
-85.34
-82.84
-68.98
-48.94
-29.31
-14.39
-5.86
-2.03
-0.54
1.05
3.91
8.29
15.25
26.56
44.64
70.30
101.50
131.85
152.30
154.32
133.49
92.59
41.03
-7.31
-40.18
-51.69
-44.81
-28.98
-14.74
-8.83
-11.13
-17.45
-23.33
-28.73
-37.86
-55.87
-84.70
-120.40
-155.97
-185.26
-207.36
-225.64
-244.06
-262.69
-275.85
-276.17
-259.37
-228.28
-191.07
-156.42
-127.92
-102.67
-73.99
-35.85
12.45
66.65
119.38
164.45
198.75
222.19
235.92
239.68
231.25
207.32
166.44
111.65
51.34
-1.95
-36.14
-44.23
-27.99
3.95
40.39
73.51
102.08
128.85
156.29
181.79
198.13
197.44
177.00
141.99
103.47
72.84
56.24
53.04
56.96
61.16
61.41
57.02
49.55
40.45
30.54
20.20
10.47
2.67
-2.32
-5.00
-7.92
-14.33
-26.65
-44.18
-63.48
-79.18
-86.82
-85.81
-78.99
-71.27
-66.19
-63.28
-57.85
-44.15
-18.61
17.65
58.23
94.15
117.09
122.99
112.53
90.95
65.82
44.24
31.39
28.63
33.55
41.90
49.33
53.38
53.55
50.66
44.69
34.40
17.55
-6.72
-36.89
-68.68
-96.71
-117.93
-132.87
-145.15
-158.55
-174.02
-188.21
-195.09
-189.24
-168.95
-138.36
-105.48
-79.22
-64.97
-63.51
-71.08
-81.83
-91.55
-98.15
-102.18
-105.06
-107.14
-107.28
-103.03
-92.14
-74.61
-53.59
-34.64
-23.34
-21.55
-26.25
-30.27
-25.51
-7.40
22.80
57.96
88.93
108.66
114.89
110.48
101.17
93.06
90.05
93.85
104.22
120.46
140.74
161.51
177.50
182.86
174.35
153.16
125.49
99.11
78.95
63.15
43.30
8.89
-45.72
-116.25
-189.23
-246.67
-274.17
-267.09
-231.33
-179.59
-124.28
-72.70
-25.63
19.29
62.71
101.06
127.55
137.43
132.00
120.24
113.98
121.03
139.76
159.07
165.00
148.74
112.20
66.73
27.05
2.50
-6.81
-8.19
-10.97
-20.50
-36.68
-55.24
-71.85
-84.19
-91.55
-93.60
-89.06
-76.57
-55.94
-29.34
-0.07
29.35
57.72
84.59
107.28
119.81
113.57
82.89
29.59
-34.34
-90.11
-120.72
-118.22
-88.48
-47.72
-14.50
-0.42
-5.17
-17.27
-21.49
-7.44
25.52
67.91
106.19
129.46
134.10
123.73
105.17
84.15
62.82
41.69
22.27
8.91
6.82
17.48
36.07
52.58
57.40
46.81
26.10
6.28
-2.55
2.89
16.01
24.33
15.94
-13.82
-59.38
-107.73
-144.26
-158.66
-148.53
-119.32
-80.83
-44.24
-18.81
-10.17
-19.83
-44.96
-78.83
-112.12
-135.67
-143.00
-133.42
-112.13
-88.27
-71.52
-67.68
-77.24
-95.06
-113.44
-125.01
-124.92
-112.80
-91.41
-66.05
-42.74
-26.78
-21.58
-27.81
-43.61
-64.74
-85.91
-101.76
-108.51
-103.39
-85.28
-55.27
-16.50
25.47
64.23
94.66
115.64
129.85
141.90
154.45
166.28
173.83
173.68
166.49
156.17
147.25
140.61
132.70
118.72
96.75
71.87
53.48
50.13
63.44
86.36
106.79
114.38
105.95
85.92
63.45
46.43
37.78
35.91
36.76
37.71
38.98
43.19
51.75
62.31
68.03
60.41
34.33
-8.41
-57.37
-98.09
-117.45
-109.24
-76.20
-28.22
21.43
61.45
84.39
88.79
77.40
56.45
33.23
13.99
2.18
-3.29
-6.34
-12.31
-24.38
-42.21
-62.50
-80.99
-95.19
-104.71
-110.99
-115.35
-118.92
-122.52
-127.04
-132.83
-138.20
-139.35
-130.34
-106.60
-67.41
-18.23
30.31
67.62
87.01
89.32
81.21
71.73
66.69
66.85
67.71
62.88
48.72
25.58
-2.08
-29.22
-53.03
-75.15
-100.26
-132.51
-172.47
-214.84
-250.36
-268.60
-262.32
-230.57
-179.55
-120.46
-65.18
-23.19
0.81
6.42
-3.03
-21.86
-43.30
-59.61
-63.95
-51.72
-22.33
20.28
68.49
113.40
146.97
164.73
167.28
159.07
146.95
136.82
132.20
133.32
137.59
141.89
143.44
140.98
133.79
121.10
101.64
74.39
39.87
0.46
-38.69
-71.92
-94.27
-103.09
-98.49
-83.27
-62.69
-42.67
-28.41
-21.35
-18.32
-13.36
-0.46
22.42
51.74
79.92
99.76
107.92
107.33
104.77
107.00
116.77
130.39
140.10
138.41
123.29
99.62
77.12
64.46
64.32
72.47
80.30
81.95
77.75
74.46
79.51
94.16
110.26
113.09
89.92
37.17
-36.68
-114.94
-181.34
-225.69
-246.05
-245.34
-227.48
-195.65
-153.50
-106.70
-62.99
-30.21
-12.22
-7.26
-8.71
-9.21
-4.81
2.50
5.76
-3.04
-28.93
-69.92
-117.62
-158.72
-179.89
-173.23
-139.79
-90.14
-40.93
-8.27
-0.43
-14.87
-39.73
-59.30
-61.65
-42.65
-7.03
35.25
74.15
103.39
120.61
125.55
117.66
95.71
60.50
16.85
-26.07
-58.42
-74.39
-74.75
-65.79
-53.73
-40.68
-22.80
4.90
43.27
85.54
118.50
129.24
112.45
73.83
27.15
-11.80
-32.76
-33.70
-19.84
0.17
19.10
32.59
40.15
43.07
43.02
40.67
35.06
24.68
7.98
-14.29
-39.13
-61.59
-77.10
-83.40
-81.78
-77.27
-75.75
-81.65
-94.83
-110.48
-120.55
-117.06
-95.88
-58.11
-10.54
37.59
77.61
104.64
117.58
118.29
109.99
94.98
76.17
56.67
41.13
33.66
36.40
48.36
65.28
82.39
96.20
106.30
114.10
121.03
127.34
132.12
135.01
137.24
142.06
152.27
168.68
188.55
207.24
219.74
222.26
213.18
190.97
154.42
102.45
36.37
-39.16
-116.26
-185.61
-239.93
-275.35
-292.19
-292.44
-278.79
-253.88
-220.66
-183.94
-150.27
-126.94
-118.31
-123.75
-136.79
-147.16
-144.80
-123.93
-86.33
-41.28
-2.66
16.31
8.05
-26.03
-76.21
-128.50
-168.99
-188.45
-183.57
-157.26
-116.52
-70.00
-25.91
10.29
36.90
56.78
74.94
96.02
121.61
148.19
168.93
176.08
164.60
133.91
88.68
37.16
-10.82
-46.91
-67.57
-74.34
-72.90
-69.29
-65.69
-59.51
-45.34
-19.70
15.65
52.77
81.49
94.25
90.61
77.55
65.44
62.91
72.05
88.35
102.66
105.87
92.28
61.62
19.14
-26.72
-66.85
-94.61
-107.14
-105.58
-93.10
-73.54
-50.50
-27.18
-7.52
4.72
6.67
-2.62
-20.88
-42.55
-60.35
-68.23
-63.56
-49.09
-30.88
-15.30
-5.88
-1.42
2.83
12.52
30.75
56.54
84.63
107.51
117.77
110.34
84.45
43.64
-4.69
-50.67
-83.68
-95.34
-81.27
-42.70
13.53
76.33
133.07
173.04
190.22
183.98
158.24
119.72
76.46
36.11
6.15
-8.18
-4.75
14.04
41.58
69.35
89.21
96.47
90.62
74.37
51.72
26.06
0.39
-22.50
-39.17
-47.41
-48.13
-46.31
-48.58
-59.31
-77.21
-94.70
-102.47
-94.21
-70.72
-39.50
-11.47
4.42
4.59
-9.13
-31.19
-56.24
-80.49
-101.80
-118.10
-126.39
-122.92
-103.98
-68.65
-20.10
33.80
82.28
115.24
126.90
117.87
93.71
61.38
24.55
-16.57
-63.56
-115.50
-166.40
-206.57
-225.93
-219.11
-187.31
-138.45
-83.50
-32.58
8.27
38.35
60.43
78.73
95.98
112.69
128.15
141.94
154.93
167.67
178.91
184.36
178.36
156.60
119.63
73.48
26.80
-13.00
-42.71
-62.77
-75.71
-82.73
-82.98
-74.87
-57.63
-33.40
-7.14
14.41
25.37
23.15
10.39
-5.10
-13.22
-5.74
18.15
50.39
76.05
80.88
58.76
15.65
-32.27
-67.21
-77.88
-64.83
-38.47
-12.66
2.86
7.22
6.90
10.95
24.39
45.38
66.70
80.47
83.44
77.89
69.92
64.04
59.29
49.51
27.22
-10.25
-57.23
-101.19
-129.23
-135.28
-124.68
-111.01
-109.12
-127.11
-161.62
-199.80
-225.45
-227.31
-202.90
-158.30
-103.74
-47.73
5.58
56.37
104.75
148.12
180.50
195.88
192.64
176.09
157.29
147.40
152.24
168.97
187.68
196.30
185.31
151.22
96.63
29.04
-41.93
-106.72
-158.62
-194.61
-214.38
-219.47
-210.91
-189.14
-154.75
-110.74
-63.74
-22.66
3.73
10.62
-0.72
-22.57
-43.55
-52.03
-40.63
-8.57
37.48
85.06
120.57
133.84
122.24
91.09
50.93
13.15
-13.56
-25.05
-22.71
-12.01
-1.82
-0.99
-15.30
-44.03
-78.67
-106.81
-117.29
-106.28
-78.60
-44.50
-14.27
6.61
17.64
20.18
14.75
0.46
-21.97
-46.53
-62.44
-57.89
-27.19
24.50
82.23
127.76
148.79
144.05
123.30
100.97
88.81
91.22
104.21
120.01
131.15
134.58
131.45
124.76
116.58
105.83
89.56
64.81
30.96
-9.25
-51.34
-90.47
-122.72
-145.50
-156.96
-155.55
-140.60
-113.03
-76.22
-35.47
2.95
33.83
54.88
66.33
71.03
72.21
72.92
74.80
77.65
79.46
77.00
67.36
48.65
21.66
-10.90
-45.25
-77.77
-106.21
-128.57
-142.67
-146.11
-136.56
-113.53
-79.34
-39.53
-1.74
27.18
43.82
49.18
47.86
45.78
46.63
50.74
54.87
54.58
46.23
29.30
5.86
-20.40
-45.96
-68.30
-85.50
-96.15
-98.94
-93.89
-83.53
-72.55
-66.25
-67.56
-75.98
-87.24
-95.84
-97.55
-91.21
-78.53
-61.75
-41.68
-17.91
9.94
40.07
67.79
86.76
92.53
84.94
69.21
53.30
44.50
45.45
52.94
60.10
60.79
53.79
42.93
35.27
35.99
45.20
57.90
66.73
66.39
55.70
38.38
20.42
7.61
2.68
4.64
10.10
14.53
14.44
9.05
0.65
-6.85
-9.87
-7.35
-2.12
0.91
-2.13
-11.31
-23.10
-32.18
-35.21
-32.90
-29.16
-28.32
-32.07
-38.96
-45.94
-50.90
-54.60
-60.88
-73.68
-93.54
-116.34
-133.91
-138.18
-123.93
-90.68
-42.72
13.24
69.46
118.74
155.30
176.07
180.50
170.78
150.97
125.25
97.34
70.63
48.82
36.21
36.41
49.68
70.66
89.03
93.43
77.50
43.99
4.13
-27.40
-39.65
-29.92
-4.14
26.75
51.81
64.60
63.56
50.85
30.34
5.26
-21.55
-47.61
-69.99
-85.83
-92.90
-90.99
-82.56
-71.83
-63.95
-63.22
-71.98
-89.88
-113.80
-138.33
-156.38
-161.66
-150.18
-123.45
-88.53
-56.74
-38.93
-41.08
-62.89
-97.98
-137.90
-175.43
-206.69
-229.66
-242.73
-243.08
-226.90
-192.44
-141.13
-79.07
-14.95
42.37
87.37
118.86
139.11
151.54
158.16
159.11
152.79
139.50
122.60
108.39
103.18
108.80
122.29
136.18
143.28
139.02
123.29
99.50
72.28
46.92
28.32
21.19
28.93
51.99
85.64
121.11
147.70
157.21
147.90
124.81
98.53
79.84
75.90
87.76
110.90
137.49
158.95
169.03
164.60
146.59
119.14
87.51
56.32
26.82
-2.77
-36.03
-75.43
-120.40
-166.63
-208.00
-239.77
-259.88
-268.92
-267.91
-256.48
-232.64
-194.75
-143.62
-84.38
-25.54
24.40
58.76
74.95
74.21
60.93
41.30
21.92
8.53
3.87
7.46
15.52
22.79
25.34
21.99
14.69
6.22
-1.59
-8.85
-17.60
-31.19
-52.82
-83.73
-122.59
-164.45
-201.51
-223.85
-223.13
-195.61
-143.80
-75.87
-2.00
68.45
129.81
179.41
216.16
239.31
248.83
246.60
236.91
225.48
215.67
207.03
195.44
176.38
148.84
116.33
84.71
57.46
32.33
1.95
-40.73
-96.78
-158.41
-211.23
-240.96
-240.02
-210.99
-163.55
-109.47
-57.33
-10.63
29.76
63.10
87.13
99.46
99.73
90.77
77.44
64.00
52.25
40.36
24.77
1.50
-31.17
-71.68
-116.11
-158.97
-195.34
-222.19
-239.44
-249.13
-254.54
-258.01
-259.51
-256.66
-245.56
-223.16
-188.57
-143.40
-90.94
-34.75
21.04
72.09
113.42
141.26
154.18
154.98
149.78
146.16
149.85
161.66
177.98
192.04
198.26
193.85
180.33
162.48
145.45
132.75
125.27
122.56
123.53
128.46
138.12
152.13
167.55
178.11
177.88
163.86
139.45
113.37
95.51
91.58
99.52
110.86
114.60
103.90
78.76
45.67
12.39
-16.22
-39.62
-60.34
-80.20
-98.85
-114.18
-125.37
-133.89
-143.04
-155.82
-172.14
-188.92
-201.29
-206.33
-204.53
-199.50
-195.04
-192.10
-188.56
-179.73
-162.46
-137.01
-108.32
-83.59
-69.53
-69.52
-81.80
-100.39
-116.43
-121.39
-109.33
-79.01
-34.27
17.70
67.94
108.52
134.64
144.93
140.94
126.62
107.79
90.66
80.94
81.19
89.74
100.70
106.32
101.24
85.70
66.19
51.11
46.80
53.88
68.24
83.94
96.66
104.66
106.82
101.78
87.21
63.35
35.41
13.72
9.24
26.63
60.90
97.63
119.42
113.89
78.64
21.55
-43.30
-101.16
-141.75
-160.76
-159.86
-145.00
-124.64
-107.84
-102.04
-111.14
-132.98
-160.41
-183.24
-193.25
-187.55
-169.55
-146.30
-123.58
-102.74
-79.16
-45.96
0.83
58.41
117.09
164.33
189.83
191.08
173.93
149.95
131.08
124.75
131.32
145.43
160.49
172.10
180.35
188.39
199.67
214.76
230.06
239.34
235.98
215.98
178.67
127.46
68.34
9.25
-40.42
-72.32
-81.44
-69.63
-45.56
-22.14
-11.54
-19.90
-45.85
-81.73
-118.33
-148.12
-167.41
-176.07
-175.52
-167.52
-153.39
-134.82
-113.85
-93.80
-78.00
-69.81
-71.88
-85.22
-109.18
-139.92
-171.03
-194.26
-202.56
-192.60
-167.02
-134.44
-105.86
-91.00
-93.71
-110.51
-131.38
-143.92
-137.92
-108.78
-59.31
2.60
66.28
123.23
168.89
202.79
226.70
241.23
244.42
231.80
199.60
147.75
82.23
14.55
-42.23
-78.05
-90.42
-84.07
-68.83
-54.30
-45.85
-43.06
-41.41
-35.83
-23.25
-4.29
17.88
39.01
55.71
65.46
65.98
55.48
33.17
1.62
-32.96
-61.17
-74.35
-68.42
-45.93
-14.89
15.12
37.10
49.19
53.48
52.13
45.46
30.86
5.90
-29.44
-70.19
-107.66
-133.05
-140.62
-130.21
-106.53
-77.21
-49.20
-26.67
-10.34
1.85
12.94
25.36
39.05
52.14
61.66
65.92
65.61
63.94
64.40
67.25
68.58
62.11
43.67
15.03
-15.08
-35.20
-38.54
-26.47
-8.36
5.47
9.69
7.96
9.96
23.87
50.96
84.13
113.10
130.71
137.50
140.30
146.34
158.13
171.32
178.27
172.43
152.14
120.44
83.36
46.46
13.62
-12.53
-30.28
-37.81
-34.33
-21.59
-5.23
6.70
7.11
-6.70
-29.77
-51.61
-60.12
-48.93
-20.71
13.72
40.47
50.12
41.97
23.66
5.41
-5.88
-9.84
-10.67
-12.87
-18.52
-26.87
-37.85
-54.14
-80.54
-119.63
-167.72
-214.77
-248.05
-259.01
-246.81
-217.92
-181.66
-145.43
-112.32
-82.42
-56.07
-34.54
-19.26
-8.41
3.31
22.25
51.01
84.97
113.41
124.63
113.58
85.01
52.05
29.22
25.23
39.35
62.89
85.33
98.80
100.34
90.08
68.06
34.24
-10.01
-58.59
-101.03
-126.18
-128.26
-110.73
-85.59
-67.45
-65.15
-77.04
-91.06
-91.43
-66.53
-14.88
54.27
125.16
182.70
218.43
231.79
228.86
217.90
205.91
196.96
191.74
188.61
183.46
171.34
147.28
108.77
58.46
3.96
-44.37
-78.09
-94.12
-95.98
-90.41
-83.81
-78.80
-74.48
-69.43
-63.93
-61.37
-65.97
-80.46
-104.02
-132.12
-157.91
-174.87
-178.93
-169.87
-152.16
-133.28
-121.65
-122.79
-136.34
-156.29
-172.50
-175.50
-159.63
-124.83
-76.15
-20.80
33.99
83.00
123.28
154.22
176.37
190.25
194.79
186.67
160.93
113.60
45.12
-38.22
-123.75
-195.99
-241.15
-251.36
-227.06
-176.77
-114.99
-57.70
-17.74
-0.05
-0.26
-7.43
-8.90
3.32
29.42
63.47
97.76
127.11
150.34
168.62
181.95
188.34
184.48
169.31
146.34
122.45
104.06
92.74
83.46
67.14
36.42
-9.03
-60.92
-105.28
-128.86
-125.10
-96.72
-53.09
-5.65
37.76
74.89
107.11
136.27
161.04
177.07
179.33
165.69
138.84
105.32
72.53
45.05
23.16
3.75
-16.51
-38.13
-57.70
-70.08
-72.53
-67.11
-61.48
-64.48
-81.15
-108.94
-138.35
-158.04
-160.21
-144.82
-118.10
-88.49
-60.80
-34.46
-4.93
32.28
77.53
126.63
172.58
209.25
232.72
241.73
236.46
217.23
184.48
139.24
84.69
26.35
-29.36
-77.61
-116.67
-148.00
-175.15
-199.97
-221.33
-234.10
-232.44
-212.93
-178.06
-135.99
-96.53
-67.01
-48.27
-36.39
-26.06
-14.86
-4.20
2.47
3.04
-0.86
-5.76
-8.45
-8.95
-10.42
-16.46
-27.54
-39.25
-43.88
-34.73
-10.78
22.22
53.51
72.77
75.49
64.44
48.15
35.40
30.32
29.95
27.38
16.47
-3.03
-23.80
-34.72
-26.69
1.95
43.58
84.89
113.02
121.48
111.90
92.34
71.86
55.97
44.88
34.98
22.80
8.48
-4.04
-9.81
-6.12
5.44
19.74
30.99
35.78
34.57
30.08
25.62
23.31
23.74
25.76
26.95
24.34
14.67
-3.20
-26.72
-49.87
-64.48
-64.08
-47.34
-19.16
12.24
38.44
55.18
62.88
65.30
66.88
69.89
74.06
77.18
77.05
72.53
64.19
54.29
45.37
39.47
36.40
33.84
27.56
13.13
-11.82
-45.54
-82.89
-118.33
-147.81
-171.48
-192.45
-213.98
-236.51
-256.56
-268.37
-267.25
-253.00
-229.36
-202.43
-176.03
-150.15
-121.45
-86.46
-45.36
-1.96
37.21
67.30
87.45
101.45
115.48
133.66
155.52
175.45
185.62
180.13
158.56
126.14
91.89
64.16
46.61
38.63
36.24
35.39
33.16
28.27
19.95
7.79
-7.89
-25.51
-41.44
-52.56
-56.77
-54.65
-48.90
-42.30
-36.75
-31.41
-24.17
-12.26
5.11
26.31
47.70
64.75
73.56
72.69
64.17
51.97
41.41
36.16
37.67
44.70
54.70
65.68
77.18
90.65
107.39
127.83
149.64
168.49
179.63
179.48
167.90
146.57
118.10
84.02
44.47
0.90
-42.94
-80.24
-104.79
-114.38
-113.50
-111.28
-116.74
-133.68
-158.85
-184.74
-204.15
-213.93
-214.53
-208.04
-194.63
-173.10
-143.06
-107.94
-74.99
-52.18
-43.85
-47.17
-52.82
-49.99
-31.39
1.97
41.02
72.38
84.53
72.98
40.77
-3.37
-50.12
-92.79
-128.39
-155.34
-170.79
-170.35
-150.54
-112.18
-61.47
-8.56
36.58
68.42
86.88
95.04
96.46
93.90
89.35
86.01
88.29
99.78
119.77
142.52
159.58
163.82
154.20
136.60
121.02
116.33
126.25
147.41
170.55
185.01
182.82
162.31
128.32
89.14
52.86
22.81
-3.58
-32.78
-70.13
-115.97
-164.27
-205.21
-229.70
-233.27
-217.32
-186.66
-147.38
-105.04
-64.88
-31.81
-9.80
0.38
3.05
6.58
19.44
44.96
78.11
106.44
116.40
101.19
64.31
19.01
-18.84
-38.01
-36.71
-21.96
-4.66
5.90
6.20
-1.43
-10.94
-15.89
-11.59
3.65
27.88
56.51
82.74
99.57
102.07
89.62
66.49
40.11
18.18
5.02
0.11
-1.32
-6.14
-19.16
-40.17
-63.80
-82.64
-90.83
-87.69
-77.10
-63.85
-49.28
-30.26
-1.79
38.22
84.60
125.74
148.45
144.69
115.38
68.88
16.12
-35.38
-82.90
-126.21
-162.97
-187.43
-193.05
-176.47
-141.33
-97.08
-55.00
-22.99
-2.82
8.36
14.60
17.72
16.60
9.70
-1.98
-13.45
-18.04
-11.65
4.46
23.54
37.04
39.56
31.82
19.75
10.22
6.63
6.81
4.57
-5.99
-26.14
-51.26
-74.24
-89.16
-94.40
-93.41
-90.91
-90.26
-91.13
-90.15
-82.95
-66.31
-39.21
-2.83
39.26
81.35
115.49
132.67
125.94
93.87
42.82
-13.99
-61.03
-86.60
-87.04
-67.11
-36.61
-5.21
20.69
38.38
47.37
47.18
37.25
19.72
1.04
-8.98
-0.13
31.78
82.10
137.34
180.71
198.92
187.58
152.40
105.18
58.66
20.78
-6.02
-23.14
-32.65
-34.57
-27.67
-11.63
10.55
33.11
49.32
55.60
53.20
47.38
44.13
46.29
52.58
58.69
60.10
53.83
38.81
15.57
-14.36
-46.78
-74.95
-90.39
-86.64
-62.71
-25.51
11.90
36.27
39.78
23.98
-1.83
-26.05
-40.01
-41.77
-34.67
-24.05
-13.94
-6.26
-0.90
2.21
2.12
-3.24
-15.39
-33.77
-55.25
-74.17
-84.08
-80.29
-61.66
-31.34
4.15
36.38
58.72
68.16
66.24
57.51
46.89
37.39
29.44
21.79
13.33
4.19
-4.67
-12.12
-17.81
-22.06
-25.18
-26.93
-25.70
-20.49
-11.12
1.37
15.10
28.25
39.18
47.15
51.36
51.01
45.78
36.29
24.21
12.12
2.79
-2.83
-5.28
-6.51
-8.74
-12.80
-18.40
-24.20
-28.43
-30.03
-29.80
-30.66
-37.64
-55.74
-87.20
-128.89
-171.07
-200.85
-206.10
-181.06
-128.33
-58.11
16.13
82.90
135.14
170.95
190.38
193.81
181.71
156.21
122.77
89.23
63.80
51.00
49.81
54.04
55.01
45.38
21.34
-16.39
-63.73
-114.35
-161.01
-196.05
-212.00
-203.37
-168.89
-114.40
-51.92
3.03
37.92
47.98
38.40
21.58
11.20
16.02
35.84
64.24
92.65
115.44
131.70
143.23
151.76
156.46
155.21
146.76
132.58
115.67
97.93
77.71
49.89
9.93
-41.82
-98.11
-146.96
-176.95
-182.70
-166.78
-136.85
-102.12
-69.28
-42.66
-24.97
-18.25
-23.12
-37.35
-55.02
-67.76
-69.27
-58.14
-38.48
-17.84
-3.06
2.11
-2.73
-16.50
-37.73
-65.07
-96.62
-129.24
-159.26
-182.32
-194.38
-191.46
-170.22
-129.85
-73.65
-9.84
50.42
96.64
123.38
131.83
128.54
120.73
111.97
100.83
82.58
53.53
14.25
-28.94
-66.66
-90.43
-96.92
-90.31
-79.66
-74.45
-78.16
-85.83
-85.64
-66.27
-24.48
32.31
88.17
127.10
140.16
129.09
104.19
78.63
63.01
62.21
76.19
101.29
131.76
160.04
177.57
176.98
155.25
116.31
69.99
28.98
3.61
-0.99
13.47
40.65
73.11
104.49
131.43
152.17
165.22
167.25
153.77
121.59
71.66
12.28
-42.90
-79.92
-91.11
-79.06
-55.69
-36.26
-31.31
-42.46
-62.73
-82.43
-94.60
-97.79
-94.74
-88.27
-78.66
-63.76
-42.20
-16.83
4.13
9.95
-8.03
-52.42
-117.55
-191.85
-260.97
-312.65
-339.32
-338.69
-313.04
-266.58
-204.61
-131.58
-51.62
30.86
110.38
180.50
234.33
265.52
270.87
250.99
211.76
163.65
119.77
91.94
85.76
98.78
120.69
138.13
140.38
124.32
94.98
62.22
35.47
19.02
12.08
10.62
11.82
15.57
22.89
33.23
42.79
46.45
40.48
26.84
13.17
9.26
21.30
47.91
80.15
105.28
113.47
101.32
72.94
36.11
-1.07
-33.14
-58.82
-79.21
-96.73
-113.11
-129.18
-144.43
-157.09
-164.60
-164.57
-156.98
-144.37
-131.52
-122.56
-118.39
-115.97
-110.44
-98.93
-82.41
-65.45
-52.11
-42.76
-33.60
-19.52
1.66
27.69
52.77
72.10
84.34
92.05
98.07
102.68
103.37
96.95
83.17
66.12
51.89
44.63
43.28
41.98
33.36
13.74
-15.85
-50.08
-83.65
-112.99
-136.91
-154.86
-165.04
-164.78
-151.91
-127.14
-94.06
-58.04
-24.52
3.08
22.96
35.50
41.92
44.76
48.43
58.41
79.25
111.96
152.60
192.75
222.32
233.02
220.46
184.78
130.24
65.32
1.44
-47.71
-70.63
-61.29
-23.43
29.98
81.02
113.47
118.93
99.02
63.63
24.60
-8.78
-31.96
-44.83
-49.18
-47.60
-42.25
-36.01
-32.11
-33.37
-40.53
-51.79
-63.61
-72.38
-75.95
-73.49
-65.16
-51.56
-35.05
-20.84
-15.94
-26.79
-54.01
-91.04
-125.07
-142.62
-136.24
-107.69
-66.73
-26.01
5.15
23.68
31.45
32.20
28.90
23.46
18.04
15.11
17.26
24.61
34.87
44.66
52.76
61.32
74.10
93.40
116.51
135.88
141.67
126.90
90.62
37.68
-23.95
-86.85
-144.99
-193.25
-226.15
-237.91
-224.54
-186.85
-131.77
-71.11
-17.13
22.47
47.69
65.16
83.76
108.90
139.54
168.55
187.95
192.96
183.93
164.99
140.84
114.76
87.53
59.49
31.77
5.86
-17.67
-40.34
-64.40
-91.06
-118.23
-141.49
-155.92
-159.12
-152.56
-140.32
-127.63
-119.14
-118.01
-124.63
-136.84
-149.84
-157.74
-155.55
-140.38
-112.52
-74.09
-28.36
21.99
74.43
125.51
170.61
203.95
220.84
218.74
198.16
162.81
118.36
72.36
31.67
1.06
-19.47
-34.42
-50.36
-71.79
-97.74
-122.30
-137.31
-137.94
-124.71
-103.57
-81.56
-63.12
-48.56
-35.55
-22.74
-11.07
-4.25
-4.58
-10.72
-16.84
-15.26
-0.68
26.73
61.13
94.56
120.81
137.77
147.44
153.44
158.61
163.15
166.22
166.51
163.69
157.93
149.15
137.34
121.94
103.71
84.06
65.42
49.00
34.14
19.25
2.94
-13.90
-28.35
-36.59
-37.21
-32.03
-25.41
-21.63
-22.16
-25.45
-28.75
-30.79
-32.48
-36.04
-42.59
-51.09
-58.93
-64.25
-68.60
-75.67
-88.96
-107.07
-122.96
-127.40
-114.08
-84.40
-47.41
-16.35
-2.35
-9.53
-33.51
-63.43
-86.28
-91.79
-76.39
-43.98
-3.55
35.16
65.90
87.75
104.23
119.40
134.41
146.30
150.32
143.42
126.38
103.77
80.87
62.39
50.63
46.31
48.98
56.88
66.91
74.33
74.57
65.02
47.33
26.85
10.55
4.48
10.89
27.88
50.23
71.96
87.89
95.09
92.50
79.87
57.45
25.25
-15.41
-60.66
-103.64
-136.21
-152.39
-151.66
-140.03
-126.71
-120.17
-123.06
-132.08
-141.28
-147.25
-152.67
-164.48
-189.27
-226.28
-265.87
-291.74
-289.17
-252.83
-189.54
-115.29
-47.29
3.36
35.48
54.39
67.14
77.67
85.30
88.02
85.43
81.17
81.37
91.27
112.04
139.84
166.94
184.74
187.40
173.09
144.14
105.46
62.93
21.66
-14.21
-41.08
-56.40
-58.75
-49.46
-32.93
-15.71
-4.06
-1.59
-8.46
-22.45
-41.29
-63.64
-88.76
-114.70
-136.56
-147.56
-142.39
-120.36
-86.71
-50.83
-22.16
-6.08
-2.58
-7.03
-13.38
-15.93
-11.40
0.61
17.41
33.76
43.41
41.83
28.97
9.62
-8.47
-18.44
-17.13
-5.66
12.95
36.92
65.64
98.43
130.36
151.46
150.59
121.30
67.54
4.28
-48.93
-76.71
-74.84
-50.82
-18.65
9.17
25.99
31.61
28.39
18.77
4.44
-12.09
-26.44
-33.76
-31.19
-21.08
-10.68
-8.87
-21.42
-47.52
-79.26
-104.37
-111.04
-91.93
-47.80
12.96
76.28
127.35
157.26
166.38
163.40
159.45
160.77
164.51
161.09
142.14
107.37
66.59
33.90
19.55
23.17
33.90
37.29
23.64
-6.91
-46.48
-85.20
-117.44
-143.61
-166.95
-188.48
-203.75
-204.24
-182.10
-135.82
-72.54
-6.68
45.47
72.27
70.53
46.59
12.69
-18.26
-37.00
-39.35
-25.64
0.79
35.65
74.16
111.21
140.55
156.31
154.99
137.69
111.06
84.51
67.22
63.52
71.93
86.78
101.40
110.82
112.64
107.04
94.88
77.01
53.05
21.93
-17.38
-64.67
-116.95
-168.50
-211.16
-236.29
-237.32
-213.39
-170.25
-118.56
-70.18
-33.81
-13.44
-8.33
-16.15
-34.84
-63.11
-98.64
-135.41
-164.32
-174.53
-159.03
-118.15
-61.03
-1.67
47.99
82.57
106.04
127.20
154.32
189.54
227.60
259.04
275.02
271.80
251.69
221.21
186.90
152.70
118.75
83.53
46.80
11.00
-18.77
-38.60
-48.78
-55.83
-70.62
-102.96
-155.99
-221.66
-283.21
-321.01
-322.44
-287.40
-228.91
-166.89
-118.40
-90.99
-80.60
-76.52
-67.86
-49.60
-23.78
3.81
28.55
49.96
70.39
91.76
112.04
124.71
121.59
97.20
52.86
-3.18
-57.35
-95.49
-107.05
-88.20
-42.96
19.28
86.06
147.07
196.04
231.85
255.91
269.31
270.83
257.35
226.75
180.28
123.22
63.00
7.04
-39.93
-76.19
-101.95
-117.92
-123.39
-116.53
-95.34
-59.59
-13.31
35.10
73.14
88.70
74.25
31.46
-28.08
-86.55
-126.34
-137.00
-118.35
-79.98
-35.66
1.20
21.92
23.99
10.32
-12.26
-36.35
-55.89
-67.73
-71.07
-65.87
-51.32
-25.66
10.86
54.01
94.30
120.16
122.42
98.86
54.99
0.40
-55.77
-109.16
-159.37
-206.94
-248.96
-278.45
-287.29
-271.08
-232.76
-181.86
-130.90
-89.84
-62.64
-46.92
-36.38
-25.02
-9.79
8.29
26.64
44.18
62.87
86.01
114.62
145.50
170.42
180.41
170.47
143.36
109.18
80.64
66.79
67.69
74.69
74.82
59.20
28.36
-6.91
-30.92
-30.98
-3.53
43.75
96.42
139.91
165.36
171.52
162.71
145.24
124.69
105.77
92.48
88.22
94.40
108.53
123.59
129.31
116.16
79.23
21.68
-45.66
-108.00
-151.84
-170.20
-164.77
-145.19
-124.02
-111.80
-112.43
-122.16
-132.34
-133.80
-121.88
-97.67
-67.11
-37.34
-13.68
1.52
8.38
7.88
2.00
-6.61
-14.26
-17.00
-12.46
-1.60
10.19
15.21
6.80
-16.13
-48.03
-78.13
-95.26
-93.63
-74.83
-47.01
-19.95
-0.86
8.99
13.10
16.76
24.06
35.21
48.05
59.60
68.83
76.33
82.67
86.41
83.59
69.75
42.22
3.02
-40.76
-78.41
-98.83
-94.76
-65.88
-20.02
29.53
67.50
82.32
69.52
32.95
-16.39
-64.52
-98.33
-110.06
-98.88
-71.19
-36.87
-5.94
15.52
27.77
35.79
46.29
62.20
80.84
94.86
96.92
84.85
63.44
42.46
31.18
33.80
47.36
63.72
74.37
74.60
65.25
50.91
37.29
28.08
24.39
26.27
33.69
46.36
62.47
77.60
84.78
78.06
55.16
19.84
-19.95
-56.20
-84.33
-105.27
-122.69
-140.09
-157.45
-171.30
-177.75
-175.11
-165.66
-154.29
-145.72
-142.02
-141.34
-138.77
-128.52
-107.33
-76.57
-43.47
-18.32
-9.65
-19.66
-41.96
-63.79
-71.99
-59.41
-27.18
16.07
59.49
95.00
119.82
135.82
145.67
150.87
150.58
144.21
133.93
125.46
126.34
141.19
168.26
198.42
218.89
219.30
197.16
159.12
116.89
81.89
59.44
48.06
40.96
30.42
11.56
-16.38
-50.31
-85.42
-116.64
-140.43
-154.67
-158.82
-153.45
-139.20
-117.05
-88.30
-56.42
-26.72
-5.81
1.94
-2.47
-12.10
-16.57
-7.64
16.67
49.76
79.92
95.42
89.72
64.23
26.12
-14.68
-50.27
-76.21
-91.56
-97.25
-94.83
-86.75
-75.78
-66.07
-62.01
-66.87
-80.84
-100.00
-117.37
-124.81
-117.32
-94.90
-64.17
-36.20
-22.48
-29.46
-54.97
-88.45
-114.54
-120.79
-102.96
-67.44
-27.41
4.92
24.09
34.24
44.40
62.19
87.78
113.65
129.45
128.17
110.92
84.60
58.38
37.74
22.46
8.14
-9.86
-32.84
-58.08
-79.10
-89.15
-83.43
-61.16
-26.40
13.48
49.82
75.65
87.57
87.00
78.63
68.44
61.48
59.79
62.75
67.88
73.86
80.95
91.41
107.55
129.49
154.67
177.59
192.55
195.52
185.27
163.36
132.15
93.16
47.52
-3.02
-54.99
-102.34
-138.63
-159.16
-162.79
-153.00
-135.60
-116.74
-100.70
-89.02
-80.13
-70.22
-55.20
-31.76
0.77
39.54
77.53
105.62
116.54
108.32
85.75
57.52
32.24
13.75
0.02
-14.10
-33.16
-57.50
-83.51
-105.74
-119.76
-123.34
-117.05
-102.79
-83.64
-64.09
-49.65
-46.16
-56.90
-80.31
-108.48
-130.29
-135.75
-120.07
-86.02
-41.63
3.05
40.27
66.54
82.42
91.08
96.15
100.83
107.02
115.75
125.99
135.11
139.30
135.76
125.03
111.24
100.36
96.07
97.73
100.45
98.42
88.22
69.70
44.81
15.36
-17.33
-52.38
-86.78
-115.57
-132.80
-133.68
-118.03
-90.17
-57.79
-28.85
-9.48
-2.63
-8.19
-23.73
-44.42
-65.07
-81.00
-89.81
-91.31
-87.20
-79.52
-69.71
-58.80
-47.66
-37.55
-29.57
-23.79
-18.91
-12.58
-2.66
11.32
27.15
41.88
53.21
61.82
70.58
81.84
95.28
105.63
105.20
87.47
51.53
3.93
-43.40
-77.23
-89.05
-77.85
-50.74
-19.47
3.77
10.99
0.91
-21.28
-46.56
-66.86
-78.45
-83.10
-85.38
-88.40
-90.41
-84.97
-65.28
-29.32
16.82
61.73
93.91
107.56
104.63
91.59
75.40
59.32
43.31
26.69
10.83
-0.83
-6.22
-6.66
-7.14
-12.59
-24.20
-37.00
-42.82
-35.98
-17.40
5.13
22.04
28.02
25.77
24.07
31.65
51.45
77.49
98.32
102.30
83.83
45.94
-1.12
-44.03
-71.19
-75.57
-56.33
-17.13
34.30
87.55
131.00
154.77
154.17
131.07
93.84
53.62
20.28
-0.81
-9.34
-8.99
-5.29
-3.14
-6.72
-18.34
-38.63
-65.30
-92.59
-113.08
-120.21
-112.58
-94.61
-75.10
-62.68
-61.12
-66.99
-70.99
-62.37
-33.70
14.12
71.60
123.30
153.49
153.13
123.59
77.28
32.33
5.16
3.00
20.95
44.61
57.31
48.20
16.82
-26.89
-68.18
-93.09
-93.97
-71.68
-33.86
8.49
45.46
70.65
82.17
81.45
71.08
52.90
28.10
-1.60
-33.32
-62.84
-86.70
-103.00
-111.40
-111.93
-103.59
-85.37
-57.70
-24.62
6.68
28.13
34.89
28.35
15.75
7.01
9.37
24.48
47.84
71.78
89.28
95.70
89.73
72.46
46.88
17.38
-11.25
-34.58
-49.83
-56.73
-57.93
-57.91
-61.01
-68.96
-80.53
-91.98
-98.87
-98.50
-90.37
-76.19
-58.10
-37.80
-15.75
8.29
34.35
61.43
86.87
106.57
115.70
109.87
87.32
50.19
6.28
-33.51
-58.38
-63.22
-52.00
-36.39
-31.08
-45.99
-81.44
-127.29
-168.30
-191.51
-191.77
-172.74
-143.10
-111.54
-82.35
-55.49
-28.77
-1.08
26.13
48.71
62.99
68.04
66.10
61.93
59.56
60.53
63.38
64.72
62.13
54.36
42.67
28.66
13.76
-1.19
-15.68
-27.80
-34.48
-32.03
-17.63
8.96
44.07
81.20
112.56
131.57
134.92
123.55
101.93
75.05
46.26
16.26
-14.85
-45.45
-70.37
-81.94
-74.49
-47.33
-6.27
38.35
76.00
100.05
109.65
107.66
98.64
86.03
71.77
56.70
41.28
25.76
10.20
-6.14
-23.72
-41.41
-56.62
-65.68
-66.45
-59.95
-50.04
-41.88
-38.18
-37.85
-36.50
-28.81
-12.55
9.69
31.47
46.10
50.02
45.01
36.67
30.78
29.88
32.24
34.02
32.47
28.31
25.51
28.41
38.28
51.91
62.46
62.86
49.80
25.04
-5.53
-34.84
-57.46
-70.65
-74.35
-69.76
-59.16
-45.25
-30.43
-17.37
-7.51
-1.39
1.50
2.00
0.79
-2.22
-7.33
-14.52
-23.55
-33.19
-42.60
-51.71
-61.03
-71.08
-80.74
-87.05
-85.64
-73.80
-52.51
-27.50
-7.18
2.00
-1.39
-12.32
-22.06
-23.38
-13.77
3.93
23.97
41.38
54.29
63.23
69.17
71.16
67.18
55.83
39.05
21.76
9.25
3.52
0.16
-9.61
-34.52
-77.37
-131.77
-183.68
-218.05
-226.66
-211.61
-184.53
-158.92
-141.87
-130.42
-112.76
-76.02
-14.72
65.96
151.60
224.64
271.78
287.89
275.86
243.22
197.75
145.06
87.83
27.69
-33.00
-89.27
-134.33
-161.78
-168.05
-154.69
-127.33
-94.01
-61.36
-32.31
-5.50
22.27
52.25
82.16
106.28
119.14
118.59
106.87
89.27
70.86
53.78
37.52
21.42
5.86
-6.61
-12.29
-8.37
6.20
29.74
59.61
92.43
124.99
154.08
176.29
189.42
192.90
188.73
179.98
169.77
159.09
146.88
130.83
108.69
80.00
46.25
11.42
-19.56
-42.23
-54.67
-58.00
-54.90
-47.55
-35.70
-17.56
8.74
41.00
71.64
90.03
86.00
56.30
5.40
-55.13
-112.47
-158.10
-189.48
-209.50
-222.35
-230.79
-234.91
-233.27
-224.56
-208.57
-186.85
-161.26
-133.47
-103.97
-73.41
-43.44
-17.76
-0.99
3.26
-4.97
-21.44
-39.77
-54.43
-63.91
-69.93
-75.39
-81.17
-84.54
-81.86
-70.69
-52.70
-31.99
-11.72
7.61
28.29
51.31
73.34
87.52
87.74
73.87
53.16
37.53
35.86
48.70
67.05
78.24
73.49
53.57
28.34
11.12
10.30
24.99
45.71
59.41
56.81
36.81
7.41
-18.40
-29.18
-19.84
6.15
40.05
72.51
97.92
115.72
126.95
131.65
126.95
109.54
79.24
41.59
6.80
-15.46
-20.99
-13.66
-1.91
5.46
4.12
-4.94
-17.94
-30.89
-40.97
-46.27
-45.16
-36.56
-22.09
-6.11
4.92
5.47
-5.05
-22.31
-38.84
-48.35
-48.28
-40.87
-31.01
-23.57
-21.60
-25.56
-34.52
-46.36
-59.11
-71.55
-83.16
-94.20
-103.92
-110.14
-108.46
-94.89
-68.79
-34.95
-3.05
17.10
20.94
12.30
2.08
2.61
20.66
54.18
93.12
123.66
134.62
121.52
88.17
45.18
6.45
-15.58
-14.18
8.75
42.98
73.93
87.71
76.28
39.98
-13.59
-72.61
-125.04
-160.66
-172.92
-159.36
-122.21
-68.77
-10.33
40.38
73.83
86.76
83.25
72.12
62.20
58.07
58.99
61.62
63.00
63.23
64.66
69.97
79.28
89.59
96.49
97.00
92.37
86.86
85.58
90.24
96.87
97.41
83.73
52.92
9.62
-34.44
-65.65
-74.63
-61.05
-34.26
-8.82
1.98
-7.19
-32.76
-64.78
-93.83
-115.88
-133.30
-151.91
-174.86
-199.73
-218.00
-220.73
-204.65
-176.00
-147.46
-131.20
-131.64
-141.55
-146.42
-132.42
-95.02
-41.36
12.97
51.67
65.79
56.54
33.99
11.45
-0.78
0.97
13.73
31.34
48.24
62.58
75.08
87.89
101.55
114.44
124.43
131.38
138.09
148.57
165.15
185.79
204.00
211.64
202.69
176.84
138.87
96.68
58.26
29.12
11.42
4.45
5.29
9.56
13.43
14.17
11.59
7.88
6.19
8.72
15.21
23.46
30.16
32.49
28.78
18.69
2.63
-18.40
-42.80
-67.58
-89.05
-104.21
-111.41
-110.87
-105.01
-96.49
-88.01
-80.96
-76.30
-74.01
-73.35
-72.29
-67.60
-55.59
-33.99
-4.41
27.75
54.27
67.74
65.02
48.45
24.76
1.32
-16.05
-24.96
-25.83
-20.14
-9.26
5.72
23.59
42.12
57.75
67.63
70.36
67.87
64.50
64.85
71.08
81.11
89.86
91.18
81.70
62.53
39.10
18.27
4.81
-1.18
-4.03
-9.86
-22.50
-41.45
-61.40
-75.59
-78.49
-68.94
-50.06
-28.50
-11.93
-6.52
-14.80
-34.51
-59.66
-81.73
-93.53
-90.97
-74.89
-50.04
-23.41
-1.63
10.64
11.02
0.42
-17.37
-35.95
-47.54
-46.79
-33.11
-13.14
1.98
1.86
-16.67
-47.15
-76.49
-90.99
-83.79
-57.37
-21.10
14.98
44.96
68.93
90.00
109.77
125.81
132.12
123.63
100.32
68.33
37.50
16.44
8.34
9.91
13.75
12.35
2.46
-13.02
-26.44
-28.98
-16.49
8.36
36.29
56.39
60.81
49.04
27.31
4.60
-11.18
-17.15
-15.71
-12.41
-12.85
-20.19
-34.68
-54.65
-78.26
-104.07
-131.01
-158.03
-183.32
-204.65
-219.34
-225.30
-221.65
-209.10
-188.93
-161.80
-126.47
-81.20
-26.83
31.65
84.48
121.42
137.16
134.63
124.25
117.89
122.01
133.40
141.74
136.05
112.26
76.79
42.94
23.49
22.18
32.39
41.31
38.73
23.63
4.23
-7.33
-3.05
16.53
42.73
64.44
73.56
67.99
50.51
26.04
-0.91
-27.73
-51.68
-69.82
-79.15
-78.18
-68.93
-55.87
-44.26
-37.12
-34.83
-35.34
-35.50
-32.29
-23.47
-8.69
11.28
33.92
56.08
74.46
86.61
91.35
88.31
77.72
59.77
35.43
6.39
-23.70
-49.89
-67.56
-74.45
-72.38
-66.17
-61.68
-62.42
-68.17
-75.65
-80.12
-78.85
-72.08
-63.12
-54.94
-47.83
-37.99
-18.93
14.22
61.79
116.93
168.08
203.02
214.07
201.44
172.51
139.15
112.34
98.94
99.30
109.04
121.10
129.03
129.10
120.35
104.85
85.79
66.11
46.70
26.24
1.91
-29.01
-66.07
-105.58
-141.11
-166.21
-176.31
-170.78
-152.36
-125.08
-92.66
-56.82
-18.25
22.23
61.52
94.07
114.04
117.14
103.92
79.61
53.41
34.31
28.06
34.88
49.23
62.94
68.72
63.45
48.58
28.65
7.88
-11.94
-31.84
-54.08
-78.94
-104.40
-126.88
-144.10
-156.42
-166.43
-176.61
-186.45
-192.59
-190.63
-178.11
-155.92
-128.54
-101.79
-80.03
-65.84
-59.67
-61.51
-69.85
-81.77
-93.27
-100.04
-99.28
-90.04
-72.92
-48.48
-16.95
20.16
58.70
91.45
110.54
111.08
95.32
72.07
54.47
54.20
76.56
118.59
169.90
217.13
249.04
259.89
249.90
223.70
186.83
143.01
93.70
39.49
-17.26
-71.92
-118.07
-149.64
-163.08
-158.01
-136.88
-102.63
-58.86
-10.51
35.85
71.87
90.68
90.23
75.15
54.77
38.94
32.46
33.71
36.16
33.09
21.46
2.29
-21.39
-46.99
-73.36
-99.23
-121.42
-134.30
-132.87
-116.42
-90.10
-62.66
-41.78
-30.21
-24.84
-19.94
-10.24
5.52
25.63
46.82
65.95
82.03
95.51
108.02
120.70
133.89
145.82
153.02
150.98
136.67
110.48
76.67
42.38
13.83
-6.66
-21.58
-36.33
-55.57
-81.04
-110.63
-140.15
-164.52
-179.58
-182.19
-171.37
-148.43
-117.20
-83.73
-54.02
-32.75
-20.44
-13.67
-6.65
6.01
26.14
51.38
74.80
88.49
86.05
65.74
31.33
-9.14
-45.10
-67.58
-71.34
-56.63
-28.16
6.51
39.25
62.85
72.92
68.40
51.67
28.76
6.72
-7.53
-10.57
-2.67
12.85
31.31
49.31
64.62
76.26
83.17
83.28
74.13
54.04
23.99
-12.68
-50.61
-84.52
-110.99
-128.63
-137.65
-137.77
-127.62
-105.12
-70.39
-28.28
11.45
37.45
42.42
27.56
2.29
-20.22
-30.00
-24.72
-9.03
9.81
26.65
40.66
53.87
67.28
78.91
84.25
80.03
66.88
49.34
33.51
23.40
18.91
17.02
14.17
8.93
3.14
0.24
3.49
13.66
28.65
45.09
59.81
72.10
82.48
92.16
101.58
110.20
117.36
122.27
124.74
123.69
117.21
103.25
81.13
53.26
24.05
-2.06
-23.57
-41.49
-57.41
-70.57
-76.95
-72.27
-56.75
-37.23
-25.76
-33.82
-65.42
-114.75
-168.25
-210.61
-230.52
-223.99
-194.93
-151.76
-104.92
-63.89
-35.45
-22.11
-22.02
-30.20
-40.81
-49.08
-51.95
-47.46
-34.75
-14.26
11.77
38.67
60.30
71.99
72.22
63.63
51.44
40.94
35.18
34.80
39.47
48.63
62.61
80.27
97.88
108.41
104.62
83.33
47.52
6.46
-28.97
-51.60
-61.21
-63.83
-67.34
-76.04
-87.80
-95.54
-91.91
-73.71
-43.53
-8.84
21.70
41.53
48.08
43.63
33.77
25.43
23.91
30.66
42.94
55.44
63.53
65.33
62.40
57.35
52.20
46.94
39.86
30.13
18.64
8.37
2.23
1.02
2.95
5.09
5.70
4.70
3.09
0.87
-4.11
-15.43
-34.53
-58.57
-81.15
-94.70
-94.92
-83.17
-66.17
-52.56
-48.39
-53.89
-63.91
-70.98
-69.36
-57.31
-36.21
-9.41
19.84
48.38
72.96
90.27
97.96
96.05
87.00
74.76
63.21
53.95
46.40
38.71
29.55
20.02
13.00
10.80
13.62
19.12
23.29
23.14
18.44
11.99
8.59
11.96
22.21
34.66
41.72
36.44
16.68
-13.59
-45.76
-70.78
-83.51
-84.31
-77.86
-70.10
-65.42
-65.23
-68.52
-74.14
-80.65
-86.93
-90.49
-88.13
-77.38
-58.34
-34.88
-13.27
0.61
4.53
0.69
-5.05
-5.91
2.56
20.63
43.47
63.40
72.34
65.87
44.63
14.26
-16.11
-37.52
-43.68
-33.68
-11.59
14.55
35.90
45.24
38.81
17.04
-16.75
-56.35
-94.76
-124.04
-136.80
-127.85
-96.08
-46.38
10.20
58.93
87.34
90.59
74.22
51.61
37.28
39.93
58.29
83.35
103.68
112.01
107.41
93.44
74.91
54.82
35.47
19.66
11.59
14.47
27.25
42.65
49.56
38.31
6.11
-40.29
-87.73
-121.39
-130.87
-113.55
-75.09
-26.75
18.42
49.40
61.07
54.71
37.05
17.21
2.63
-2.28
3.19
17.49
37.36
58.77
77.20
88.17
89.57
82.21
69.69
55.90
42.75
29.10
12.13
-10.43
-37.85
-66.35
-90.74
-106.23
-110.31
-102.96
-86.85
-66.49
-46.90
-32.61
-25.43
-23.79
-23.06
-18.48
-8.10
5.94
17.50
20.73
13.12
-2.34
