1638462767.00
64.000000
-0.00
-0.00
-0.00
-0.00
-0.00
-0.00
-0.00
-0.00
-0.00
-0.00
0.00
0.01
0.01
-0.00
-0.03
-0.05
-0.05
0.00
0.13
0.36
0.66
1.01
1.37
1.72
2.06
2.40
2.79
3.24
3.80
4.43
5.11
5.78
6.40
6.99
7.56
8.20
8.95
9.93
11.10
12.35
13.56
14.66
15.64
16.64
17.88
19.55
21.92
24.84
28.07
31.28
34.25
36.97
39.72
42.91
46.96
52.35
58.85
66.00
73.21
80.01
86.28
92.40
99.04
106.88
116.68
128.21
140.80
153.45
165.34
176.12
186.18
196.87
207.27
220.14
236.58
256.85
279.44
300.85
316.01
319.87
309.19
283.82
247.03
203.35
157.29
111.32
66.09
20.97
-24.45
-69.70
-113.55
-154.98
-194.05
-231.16
-266.35
-298.05
-323.98
-342.15
-352.35
-355.91
-355.04
-351.24
-344.12
-332.20
-314.01
-290.25
-263.83
-239.07
-219.27
-205.09
-194.60
-184.34
-171.55
-155.46
-136.97
-117.75
-98.88
-80.70
-63.32
-47.28
-34.37
-27.12
-27.42
-35.73
-49.65
-64.09
-73.26
-72.37
-59.69
-37.26
-10.77
12.89
28.29
33.64
31.15
25.44
21.59
22.52
28.33
37.01
45.51
51.16
51.89
47.40
38.62
27.80
18.04
11.22
7.64
5.40
1.45
-6.78
-19.54
-34.21
-46.31
-51.44
-47.87
-36.43
-20.37
-3.58
10.77
21.44
28.21
31.00
29.81
24.31
14.54
1.06
-14.15
-28.85
-41.36
-51.11
-58.77
-64.38
-67.19
-64.42
-53.41
-32.81
-4.20
27.58
56.27
75.65
82.47
76.60
61.12
40.85
20.34
3.53
-7.04
-9.68
-3.68
10.73
31.40
55.10
78.22
97.20
109.48
113.74
110.07
99.94
85.95
70.56
56.03
43.34
32.18
22.54
15.08
11.29
12.66
18.86
26.72
30.74
25.42
8.37
-17.90
-46.28
-68.56
-78.20
-73.78
-58.46
-38.52
-21.00
-10.74
-9.33
-15.03
-24.58
-33.94
-40.78
-44.49
-46.36
-48.62
-53.13
-60.50
-70.16
-80.55
-89.51
-95.77
-98.70
-97.91
-93.69
-85.73
-74.40
-60.73
-46.77
-35.32
-27.95
-23.99
-19.60
-10.12
7.84
33.43
61.64
85.41
99.14
101.62
95.91
87.69
82.11
82.53
89.98
104.16
122.95
142.68
157.43
161.27
150.89
127.96
99.25
73.07
54.84
44.39
36.60
25.59
8.88
-10.80
-27.55
-36.32
-35.86
-29.90
-23.98
-22.92
-27.99
-37.13
-46.21
-51.32
-50.29
-43.04
-31.73
-19.33
-8.45
-0.65
4.42
7.73
9.81
10.13
7.15
-0.55
-12.96
-28.49
-45.01
-60.52
-73.85
-84.20
-89.75
-88.08
-77.21
-56.96
-30.06
-1.33
24.22
42.47
52.07
53.61
48.95
40.59
31.15
23.32
18.41
16.29
14.66
10.19
0.25
-15.74
-35.80
-56.98
-76.62
-93.50
-107.16
-117.02
-121.29
-117.55
-105.00
-85.40
-63.80
-46.15
-36.31
-33.19
-31.13
-23.07
-4.50
23.64
55.42
83.17
101.71
111.21
115.95
120.95
127.92
133.96
133.07
120.31
95.83
64.77
35.11
13.16
0.91
-4.56
-7.68
-11.43
-15.16
-15.67
-10.13
1.53
15.83
28.05
34.43
34.61
30.64
25.27
20.37
15.76
10.88
5.46
-0.07
-4.83
-9.22
-14.94
-24.20
-38.29
-56.79
-76.99
-95.67
-110.74
-121.62
-129.53
-134.88
-136.89
-132.78
-120.22
-98.43
-69.84
-38.87
-9.84
14.74
34.87
52.34
68.44
82.96
94.45
102.13
106.74
111.23
117.94
127.40
136.71
140.75
135.38
119.48
96.26
71.31
50.70
37.34
30.97
27.94
23.37
14.01
-0.99
-19.37
-37.07
-49.42
-53.73
-49.64
-39.72
-28.52
-20.56
-19.28
-25.74
-38.52
-54.67
-70.14
-80.93
-83.26
-74.23
-52.85
-22.05
12.07
41.25
58.62
61.70
52.94
38.62
24.41
12.56
0.97
-14.01
-34.22
-57.54
-77.84
-88.73
-87.55
-76.94
-63.23
-52.70
-48.60
-50.22
-54.31
-56.82
-54.53
-45.10
-27.36
-1.24
31.89
68.86
104.77
133.69
150.29
151.15
136.57
110.64
79.98
51.72
30.88
19.11
14.91
14.58
14.03
10.36
2.81
-8.26
-22.14
-37.90
-54.42
-69.09
-78.48
-79.26
-70.38
-54.20
-36.39
-23.96
-22.31
-32.97
-52.07
-71.20
-80.04
-70.95
-42.27
0.09
44.91
80.29
98.56
99.37
88.38
73.86
62.90
57.83
56.72
55.21
49.90
40.09
28.29
18.75
14.39
15.75
20.51
25.03
26.42
23.89
18.66
12.85
8.08
4.53
2.63
3.07
7.29
15.69
25.89
32.68
30.10
15.40
-9.14
-36.96
-60.59
-75.56
-81.35
-80.50
-74.40
-62.13
-40.96
-10.23
25.69
57.73
75.45
72.88
51.69
20.28
-10.33
-31.85
-41.80
-43.34
-41.98
-42.70
-47.65
-56.59
-67.43
-77.85
-85.39
-87.87
-84.56
-76.50
-66.91
-59.02
-54.18
-50.03
-41.89
-26.57
-5.03
16.21
29.12
29.07
18.22
5.28
-0.35
6.26
21.56
35.76
38.84
26.47
2.65
-22.58
-38.52
-40.19
-28.94
-11.00
7.47
23.60
38.13
52.64
66.91
78.39
82.96
78.81
68.00
56.86
52.32
58.58
74.45
93.52
108.17
112.37
104.98
89.55
71.37
55.04
41.72
29.35
14.27
-6.22
-31.67
-58.67
-82.23
-98.88
-107.32
-109.06
-106.40
-101.20
-93.60
-82.87
-68.28
-50.21
-31.12
-14.31
-3.73
-2.25
-11.39
-30.14
-54.99
-80.08
-98.24
-103.48
-93.33
-71.35
-46.05
-27.04
-21.22
-28.57
-42.04
-51.92
-50.72
-38.03
-19.94
-5.65
-1.14
-5.82
-12.46
-11.57
3.02
30.64
64.35
94.53
113.17
116.99
108.32
93.78
81.28
77.02
83.05
96.45
111.13
120.10
118.87
106.80
86.48
61.77
35.91
11.84
-7.29
-17.74
-16.60
-3.94
16.22
36.37
49.69
52.71
47.06
36.53
24.39
11.18
-4.03
-20.51
-34.73
-40.60
-33.73
-14.85
9.41
29.68
39.21
37.25
29.58
24.48
28.46
42.52
62.44
80.81
90.52
88.01
73.57
50.36
22.91
-3.94
-26.54
-42.77
-52.09
-56.24
-57.65
-59.41
-62.87
-67.66
-71.60
-73.24
-73.20
-74.27
-80.97
-96.05
-118.99
-144.30
-163.93
-170.59
-160.56
-135.96
-102.64
-68.22
-38.55
-16.60
-2.15
7.09
13.72
19.99
27.55
37.71
50.79
66.70
84.04
100.31
112.50
117.20
113.15
101.32
85.03
68.52
55.28
46.38
40.72
36.64
32.69
29.23
27.12
27.33
29.09
29.93
26.75
17.05
0.22
-22.52
-48.42
-74.69
-99.15
-119.73
-133.94
-138.85
-131.33
-109.41
-74.38
-31.99
8.34
36.44
45.52
35.09
11.19
-15.96
-36.76
-45.25
-40.65
-26.72
-9.40
5.78
14.70
16.03
10.68
1.38
-9.18
-19.19
-28.57
-37.69
-46.71
-53.81
-55.94
-50.01
-35.28
-14.39
7.80
26.12
37.61
42.68
44.45
46.37
49.95
53.84
54.42
48.78
36.23
19.91
4.89
-3.76
-3.31
5.58
19.61
34.19
45.24
50.04
47.54
37.88
21.87
1.17
-21.86
-43.71
-61.27
-71.58
-73.43
-67.00
-53.81
-36.85
-19.18
-3.27
9.30
18.49
24.67
29.04
33.14
39.03
48.94
64.23
83.34
102.31
115.67
118.83
109.98
90.86
66.10
40.92
20.01
6.16
0.40
1.64
6.02
7.18
-2.49
-27.62
-67.01
-111.45
-146.93
-160.14
-144.57
-104.23
-50.98
0.66
39.35
60.04
63.20
52.58
33.29
11.26
-6.82
-14.23
-7.19
13.07
40.21
65.29
80.99
84.15
76.32
61.40
43.56
25.05
6.11
-13.80
-35.33
-57.62
-78.49
-93.92
-99.21
-91.01
-69.55
-39.36
-8.62
13.78
22.29
16.44
0.43
-19.60
-38.16
-51.91
-59.22
-58.50
-48.31
-27.94
1.28
35.50
69.00
95.98
112.45
117.07
111.24
97.07
76.62
51.58
23.92
-2.97
-24.88
-37.80
-40.72
-36.63
-31.62
-31.66
-39.46
-52.63
-65.10
-70.79
-66.99
-55.73
-42.59
-33.77
-32.26
-36.54
-42.46
-45.41
-43.22
-37.13
-29.97
-23.97
-18.90
-12.20
-0.83
16.09
36.92
58.04
75.43
86.76
92.43
95.44
99.86
109.31
124.39
141.69
154.54
155.66
140.53
110.13
70.72
31.25
-1.09
-23.89
-39.20
-51.73
-65.48
-81.71
-99.31
-115.96
-128.95
-136.60
-137.77
-132.85
-123.25
-111.21
-98.08
-83.82
-66.61
-44.40
-17.43
11.48
37.41
56.13
66.06
69.44
70.37
71.77
73.83
73.30
66.13
50.39
28.55
6.94
-6.70
-7.44
3.65
19.49
29.64
25.59
5.02
-27.68
-62.79
-90.49
-104.70
-105.06
-95.78
-82.57
-69.07
-55.98
-41.32
-22.86
-1.01
21.25
39.06
48.19
46.83
36.09
19.22
-0.61
-21.07
-41.14
-59.57
-73.88
-80.50
-76.31
-60.70
-36.26
-8.33
17.43
36.80
47.79
51.16
48.99
44.80
41.76
41.82
44.52
46.88
44.76
35.25
18.30
-2.77
-22.15
-35.04
-39.42
-36.60
-30.32
-23.85
-19.31
-16.44
-14.61
-12.96
-11.20
-9.03
-5.57
0.01
8.52
19.50
31.67
43.17
51.75
55.78
53.67
45.19
31.19
14.76
0.27
-6.88
-2.82
13.34
39.09
69.08
97.24
118.36
129.73
130.88
122.70
107.09
85.71
60.77
34.40
8.87
-13.90
-32.50
-46.48
-55.56
-59.65
-59.06
-54.14
-46.21
-37.61
-31.24
-30.05
-35.42
-47.26
-62.85
-77.71
-87.08
-87.60
-78.83
-63.04
-44.66
-27.44
-13.47
-2.46
7.24
16.53
25.06
30.94
32.79
30.41
25.58
20.39
15.93
11.54
5.64
-2.93
-13.41
-23.23
-29.63
-31.53
-30.30
-29.29
-31.38
-37.03
-42.95
-43.49
-33.45
-11.05
19.94
51.74
75.01
83.21
74.38
51.80
21.60
-9.91
-36.95
-55.44
-62.26
-56.35
-39.58
-17.07
3.80
15.75
14.91
1.96
-18.46
-39.47
-55.27
-62.61
-60.91
-51.48
-35.87
-16.25
5.31
25.89
42.77
54.26
59.92
60.86
58.94
55.80
52.40
49.27
46.04
42.32
37.51
31.10
23.17
14.56
7.32
4.40
8.34
19.29
34.04
46.85
52.40
48.52
37.14
23.05
10.59
1.75
-4.26
-9.45
-15.52
-23.39
-32.99
-44.16
-56.21
-67.50
-75.69
-78.27
-74.33
-65.60
-55.14
-45.51
-37.03
-27.96
-17.43
-7.43
-2.99
-8.73
-25.65
-48.54
-67.51
-73.31
-62.10
-37.59
-9.06
13.26
23.74
23.02
17.45
14.61
19.76
33.47
51.58
67.55
75.01
71.11
56.66
36.14
14.78
-2.66
-13.93
-18.93
-18.41
-13.84
-6.20
3.49
13.96
22.94
28.26
29.13
26.66
24.63
27.36
37.61
53.66
69.69
77.80
71.82
51.02
20.66
-10.05
-32.41
-41.53
-37.98
-26.47
-12.98
-2.67
1.89
-0.03
-7.69
-19.77
-34.01
-48.34
-60.50
-68.15
-69.71
-64.03
-51.40
-33.53
-14.17
2.71
14.14
19.18
19.46
17.13
14.37
12.12
11.12
12.48
17.33
25.75
35.25
40.99
38.59
26.89
10.14
-4.56
-11.31
-9.72
-5.39
-6.05
-16.45
-34.82
-53.19
-62.17
-56.39
-37.58
-13.70
5.97
15.41
14.42
6.72
-3.15
-12.60
-21.62
-29.93
-35.74
-35.10
-23.43
1.27
36.10
73.31
103.46
118.37
114.74
94.83
64.30
29.84
-3.57
-33.04
-56.79
-72.97
-79.31
-74.08
-57.99
-35.03
-11.09
8.15
19.95
24.24
22.26
14.18
-1.47
-25.62
-56.14
-86.62
-108.82
-115.61
-104.87
-80.24
-47.89
-13.21
21.13
54.39
85.74
111.80
127.31
127.60
111.34
83.24
52.74
30.49
23.60
32.09
48.79
62.92
65.41
52.90
29.49
3.78
-15.77
-25.27
-26.37
-23.92
-22.20
-22.00
-21.58
-19.31
-16.91
-18.87
-29.84
-51.14
-78.26
-103.08
-117.10
-115.76
-99.64
-73.15
-41.82
-9.37
22.03
51.82
79.12
102.54
120.35
130.50
130.94
119.73
96.34
62.51
23.15
-14.76
-44.81
-63.52
-71.76
-74.02
-75.59
-79.12
-83.85
-86.25
-82.86
-72.46
-56.12
-36.50
-16.17
3.03
19.95
33.29
41.80
44.89
42.99
38.79
35.51
35.96
40.37
46.19
49.58
47.52
40.04
30.16
22.43
20.17
23.66
29.93
33.48
29.39
16.14
-2.75
-20.01
-28.22
-24.13
-10.94
3.55
11.20
8.65
-1.18
-11.45
-15.68
-12.04
-4.28
0.69
-2.66
-15.60
-33.63
-49.44
-57.06
-54.53
-45.11
-34.61
-27.97
-25.80
-24.06
-16.27
2.87
33.38
70.08
103.62
125.19
130.00
118.61
95.41
65.70
33.89
2.24
-27.95
-55.19
-76.27
-86.90
-83.59
-65.32
-35.80
-2.61
24.53
37.84
34.17
16.72
-6.33
-25.94
-34.84
-30.51
-15.12
5.43
24.01
34.41
33.09
20.35
-0.63
-24.12
-44.21
-55.99
-57.39
-49.24
-34.37
-16.62
1.24
17.22
30.23
38.60
39.92
32.30
15.62
-6.16
-25.64
-33.99
-25.94
-3.33
24.06
42.47
41.81
20.96
-11.10
-40.82
-57.63
-59.49
-52.92
-48.03
-51.73
-62.80
-73.31
-74.16
-61.15
-37.77
-13.08
4.05
9.86
7.09
2.47
1.53
4.86
8.26
5.40
-6.95
-25.76
-41.81
-44.67
-28.36
4.10
41.26
68.88
76.47
62.70
35.56
7.97
-8.14
-7.17
8.57
30.41
47.91
52.61
42.18
20.73
-2.92
-18.79
-19.81
-5.07
19.87
45.66
63.64
69.47
65.06
56.13
48.86
46.23
46.58
45.76
40.41
30.60
19.82
13.13
13.30
19.32
26.26
28.34
22.61
10.60
-1.99
-9.18
-7.38
2.06
14.19
22.74
23.97
17.82
8.10
0.40
-0.64
6.79
20.10
33.39
39.61
33.37
13.31
-17.29
-52.25
-84.74
-109.33
-122.83
-124.31
-113.76
-92.22
-61.90
-26.81
7.50
34.50
48.46
45.90
26.82
-4.16
-38.51
-65.12
-74.22
-60.94
-28.04
14.15
51.22
70.07
64.43
37.10
-1.80
-40.02
-67.97
-81.99
-84.04
-78.93
-70.90
-62.15
-53.74
-46.57
-42.06
-42.02
-46.30
-51.97
-54.47
-50.06
-39.00
-26.13
-18.92
-23.11
-39.75
-63.86
-86.52
-98.12
-91.99
-66.74
-25.46
24.94
76.76
123.55
161.01
187.68
203.51
209.07
204.66
191.01
169.07
140.85
108.44
74.12
39.34
4.93
-27.96
-57.73
-81.76
-97.50
-103.18
-99.01
-87.23
-70.64
-51.82
-31.69
-10.25
13.04
37.51
60.96
79.40
88.06
83.58
65.75
38.48
8.41
-17.78
-35.93
-46.16
-52.05
-58.69
-69.65
-84.76
-99.32
-106.05
-97.95
-72.31
-33.13
10.10
46.57
69.64
79.54
82.87
87.67
98.64
113.52
124.51
122.97
104.98
73.83
38.27
7.48
-13.82
-26.66
-35.99
-46.67
-60.75
-76.89
-92.93
-107.68
-121.25
-134.10
-144.80
-150.27
-146.86
-133.42
-112.41
-89.42
-69.79
-55.51
-44.75
-33.57
-19.86
-5.31
5.33
8.07
3.54
-2.00
0.75
18.42
51.53
93.08
132.64
161.37
176.07
179.96
179.66
180.96
185.08
188.75
186.06
172.72
148.94
120.06
94.11
77.16
70.05
66.88
58.34
36.80
0.98
-42.60
-82.78
-108.13
-112.54
-96.53
-66.70
-32.20
-1.92
17.74
23.13
12.73
-12.13
-47.90
-88.81
-127.41
-156.30
-169.52
-164.41
-142.07
-107.77
-69.42
-35.03
-9.85
4.61
10.63
11.68
9.73
4.88
-3.73
-15.73
-28.07
-35.98
-35.43
-26.30
-12.27
0.30
6.43
5.08
-0.75
-5.58
-4.89
2.62
13.92
23.87
27.63
23.34
13.06
1.31
-7.18
-10.06
-7.32
-1.04
6.77
14.69
21.60
25.70
24.13
14.77
-2.42
-23.27
-40.81
-48.08
-41.33
-22.40
3.17
28.03
46.42
55.13
53.68
43.50
27.50
10.11
-4.10
-10.99
-9.66
-2.71
4.53
6.66
1.28
-9.91
-21.66
-28.84
-28.57
-22.02
-12.47
-3.31
3.97
10.23
16.67
23.51
28.73
29.87
25.62
16.84
6.93
-0.82
-4.50
-4.68
-3.55
-3.44
-5.13
-7.69
-9.65
-9.91
-9.18
-8.93
-10.64
-14.77
-19.99
-24.16
-25.36
-23.23
-18.48
-12.84
-7.93
-4.72
-3.39
-3.44
-3.95
-3.85
-2.47
0.69
5.44
11.12
17.16
22.39
26.25
28.33
28.25
25.72
20.45
12.41
2.02
-8.92
-18.11
-23.14
-22.71
-17.67
-10.63
-5.03
-2.98
-4.26
-5.84
-3.93
3.93
17.32
32.35
43.99
47.63
41.25
25.83
5.09
-15.69
-31.12
-37.29
-33.71
-22.89
-9.83
1.01
7.17
8.97
8.52
7.27
5.31
1.60
-4.32
-11.58
-17.81
-20.71
-19.51
-15.14
-9.48
-3.86
1.32
6.26
10.81
13.99
15.06
13.95
11.44
8.06
3.43
-3.31
-12.10
-20.71
-25.38
-22.47
-11.91
2.37
13.58
16.24
9.39
-3.02
-14.52
-19.94
-18.08
-11.37
-3.82
1.59
4.17
5.11
5.76
7.01
8.54
9.49
9.65
9.29
9.58
11.20
13.77
15.73
14.80
9.39
0.19
-9.63
-15.63
-13.98
-4.24
10.19
23.33
29.64
26.63
15.57
0.85
-12.89
-22.57
-27.31
-27.91
-25.38
-20.42
-12.79
-2.56
9.78
22.61
33.70
40.76
41.92
36.80
25.97
11.72
-3.19
-16.08
-24.93
-29.36
-30.47
-30.28
-30.17
-30.53
-30.26
-27.76
-22.51
-15.25
-7.88
-1.96
1.97
4.96
8.10
11.35
13.11
10.64
2.80
-8.94
-19.40
-22.54
-14.49
3.54
25.04
41.59
46.66
39.82
26.13
13.66
8.68
12.14
19.86
25.35
24.11
15.72
4.16
-5.47
-9.70
-8.54
-5.22
-3.68
-6.65
-14.03
-23.40
-31.09
-34.41
-32.92
-28.04
-22.35
-18.02
-15.86
-14.69
-12.92
-9.62
-5.46
-2.67
-2.86
-6.18
-10.34
-12.12
-9.56
-3.35
3.76
8.40
8.93
6.20
2.32
-0.29
-0.31
1.97
5.08
7.24
6.97
3.71
-1.98
-8.77
-14.53
-17.23
-16.21
-12.18
-6.96
-2.53
0.56
3.17
6.86
12.63
20.32
28.13
34.29
37.25
35.89
29.88
19.97
8.23
-1.89
-6.38
-2.82
8.54
23.70
36.46
41.80
37.35
25.07
9.77
-2.96
-9.33
-8.37
-2.01
6.11
12.63
15.16
13.72
9.73
5.06
1.43
-1.02
-2.88
-5.31
-8.85
-13.91
-20.49
-28.06
-36.02
-43.06
-47.02
-45.72
-38.34
-26.17
-12.90
-2.68
2.12
1.89
0.15
0.71
5.65
13.99
22.51
27.79
27.44
21.54
11.79
1.07
-8.01
-13.43
-14.57
-12.28
-7.86
-3.51
-0.84
-1.34
-5.08
-10.69
-16.10
-18.94
-17.94
-13.50
-7.66
-2.79
-0.41
-0.06
0.58
4.00
11.79
22.71
33.36
39.55
38.70
31.25
19.89
8.89
1.30
-1.15
1.81
9.32
20.01
31.86
42.10
47.18
44.32
32.06
12.19
-10.74
-30.66
-41.79
-41.41
-30.79
-14.68
0.97
10.86
12.79
8.01
0.19
-6.03
-7.76
-4.60
1.18
6.48
8.81
7.78
4.97
2.29
1.21
1.53
1.85
0.84
-2.07
-6.13
-9.79
-11.70
-11.48
-9.55
-7.06
-5.02
-3.77
-3.36
-3.23
-3.03
-2.27
-0.91
1.08
3.38
5.49
7.05
7.76
7.81
7.72
8.06
9.26
11.22
13.45
15.18
15.87
15.34
13.97
12.37
11.03
10.22
9.66
9.00
7.75
5.88
3.50
1.04
-0.93
-2.05
-1.91
-0.70
1.24
3.17
4.54
4.89
4.13
2.62
0.85
-0.47
-0.97
-0.62
0.27
1.22
2.02
2.64
3.39
4.32
5.39
6.37
7.21
8.18
9.57
11.76
14.39
16.82
17.93
16.91
13.61
8.50
2.59
-3.34
-8.50
-12.54
-15.21
-16.46
-16.53
-15.86
-15.17
-14.78
-14.79
-14.95
-15.33
-16.30
-18.38
-21.97
-26.71
-31.64
-35.50
-37.26
-36.71
-34.50
-31.82
-29.80
-29.00
-28.99
-28.89
-27.65
-24.96
-21.52
-18.40
-16.65
-16.54
-17.55
-18.71
-19.34
-19.36
-19.05
-18.75
-18.26
-17.20
-15.34
-12.95
-10.77
-9.55
-9.60
-10.75
-12.72
-15.30
-18.29
-21.43
-24.13
-25.78
-25.85
-24.32
-21.48
-17.82
-13.77
-9.82
-6.62
-4.54
-3.78
-3.54
-2.95
-1.18
1.95
5.96
10.22
13.98
16.85
18.31
17.66
14.43
8.87
2.46
-2.19
-2.34
3.18
13.23
24.33
32.33
34.59
31.31
25.26
19.63
16.82
16.77
18.16
18.95
17.95
15.57
12.79
11.06
10.82
11.86
13.08
13.55
12.65
10.51
8.30
7.31
8.70
12.17
15.85
16.74
12.77
4.26
-5.59
-12.26
-12.99
-8.21
-1.43
3.44
4.63
3.90
4.92
9.83
17.43
22.73
20.77
10.09
-5.71
-19.21
-23.93
-17.86
-4.71
8.45
15.40
14.05
7.19
0.17
-2.23
1.61
9.56
17.43
21.26
19.28
12.08
2.05
-7.94
-15.62
-19.56
-19.50
-15.94
-10.06
-3.68
1.23
3.18
1.74
-2.02
-6.03
-8.25
-7.31
-3.25
2.81
9.07
13.63
15.05
12.42
6.11
-2.63
-11.19
-16.55
-16.84
-12.07
-4.60
2.58
7.19
9.09
9.80
11.31
14.25
17.16
17.73
14.05
6.42
-2.63
-9.09
-10.09
-5.28
2.87
10.03
12.98
10.73
4.59
-2.77
-8.86
-12.43
-13.25
-11.56
-7.87
-2.61
3.01
7.14
7.90
4.38
-2.21
-9.31
-13.69
-13.67
-9.64
-3.80
1.19
3.85
3.86
2.30
0.20
-1.62
-2.88
-3.64
-4.07
-4.44
-5.05
-6.64
-9.46
-13.29
-17.10
-19.34
-18.82
-15.47
-10.69
-5.99
-2.91
-2.10
-3.60
-7.27
-12.60
-18.92
-24.59
-27.86
-27.12
-22.01
-13.66
-3.86
5.22
12.68
17.99
21.28
22.10
20.00
15.09
8.28
1.53
-3.48
-5.93
-6.42
-5.95
-5.44
-4.97
-4.10
-2.77
-0.97
0.80
2.80
5.44
9.09
13.48
17.04
18.41
16.91
13.63
10.89
10.76
13.79
18.00
20.27
17.77
10.20
-0.08
-9.13
-13.64
-12.46
-6.86
0.16
5.84
8.29
7.42
4.43
1.06
-1.15
-1.61
-0.45
1.16
1.98
0.86
-2.28
-6.24
-8.93
-8.21
-3.48
4.16
11.83
16.49
16.48
12.04
5.43
-0.77
-4.61
-5.79
-5.13
-3.62
-1.80
0.55
3.14
5.22
5.14
1.90
-4.03
-10.53
-14.47
-14.02
-9.47
-3.50
0.94
2.10
0.66
-1.17
-1.59
-0.24
1.24
0.76
-2.83
-8.38
-13.43
-15.39
-13.20
-8.14
-2.95
-0.49
-2.26
-7.67
-14.14
-18.60
-18.78
-14.01
-5.98
2.31
7.73
8.21
3.97
-3.21
-10.12
-13.90
-12.88
-7.08
1.78
11.19
18.36
21.32
18.89
11.22
0.08
-11.54
-19.97
-22.21
-17.10
-6.20
6.74
17.30
21.96
19.54
11.72
2.16
-4.85
-6.25
-1.91
5.78
12.68
14.95
11.26
2.59
-7.92
-17.18
-23.18
-25.56
-25.25
-22.95
-19.50
-15.42
-11.51
-8.53
-7.06
-6.91
-7.07
-7.14
-7.26
-8.29
-10.72
-13.99
-16.70
-17.44
-15.77
-12.34
-8.20
-3.69
1.44
7.45
13.27
16.87
16.17
10.76
3.16
-2.33
-1.26
8.45
25.51
46.14
65.74
81.29
91.78
97.81
100.50
100.57
98.25
93.77
88.11
82.70
79.39
79.38
82.88
88.86
95.08
99.30
100.05
97.11
90.83
82.27
72.59
63.11
55.38
50.58
49.54
52.50
58.85
67.61
78.09
88.54
98.14
106.14
111.04
110.88
103.70
88.58
66.34
39.26
9.90
-19.82
-49.12
-77.32
-102.43
-120.91
-129.09
-125.51
-112.77
-97.26
-86.33
-84.77
-92.67
-105.36
-116.49
-121.23
-118.18
-109.41
-98.73
-89.82
-85.80
-88.92
-100.89
-122.15
-151.17
-183.65
-213.40
-233.82
-240.09
-230.50
-206.31
-171.38
-131.08
-92.08
-61.37
-44.91
-44.99
-58.64
-77.83
-92.55
-94.85
-81.96
-56.86
-25.95
4.08
29.02
47.00
56.94
57.45
46.98
25.73
-2.88
-32.74
-57.28
-72.54
-78.51
-78.86
-77.98
-79.59
-84.97
-93.20
-102.22
-109.83
-115.78
-119.96
-122.46
-123.26
-122.66
-121.25
-119.78
-119.30
-120.74
-124.17
-128.52
-131.96
-132.61
-129.46
-122.46
-112.55
-100.88
-88.36
-74.73
-58.85
-39.28
-14.89
14.66
49.00
87.24
127.69
167.58
203.22
230.64
246.92
251.21
245.02
231.80
215.63
198.97
182.04
162.66
137.79
105.98
68.70
31.15
0.81
-15.70
-15.08
0.72
25.57
51.92
74.07
90.00
100.23
106.17
107.03
100.68
85.84
65.14
45.85
36.92
44.66
68.47
100.56
129.46
145.60
146.39
136.48
125.05
120.28
124.94
135.34
143.86
143.45
131.37
110.32
86.38
65.47
50.26
40.00
31.55
23.00
15.09
10.82
13.21
21.64
31.66
35.69
27.46
4.68
-29.77
-69.23
-107.11
-138.92
-162.97
-178.52
-184.25
-178.53
-160.82
-133.94
-103.22
-74.38
-49.05
-23.91
7.73
50.23
100.79
148.69
179.84
183.77
159.85
117.80
71.85
34.24
9.65
-4.76
-14.81
-24.05
-31.52
-33.44
-27.26
-14.93
-2.87
1.08
-7.52
-27.74
-53.96
-78.05
-92.65
-93.29
-79.22
-53.14
-20.70
10.52
33.12
42.54
39.12
27.96
16.61
11.27
14.43
23.83
35.39
45.74
53.56
59.05
62.11
61.25
53.52
37.25
13.24
-14.61
-41.00
-62.07
-76.85
-86.68
-92.82
-94.70
-89.82
-76.27
-54.33
-28.23
-4.08
12.99
21.85
25.25
27.57
32.35
39.57
46.99
51.34
51.23
47.54
42.20
36.94
32.85
30.82
31.54
36.51
46.47
60.18
73.76
81.71
78.69
62.07
33.28
-3.21
-40.52
-72.13
-92.87
-99.93
-93.44
-75.83
-52.06
-27.43
-7.27
5.21
8.99
4.93
-4.70
-17.25
-29.76
-40.02
-45.82
-45.60
-38.85
-27.00
-13.28
-1.73
3.52
0.64
-9.69
-24.53
-40.34
-54.05
-63.87
-69.68
-71.79
-70.95
-67.82
-63.37
-58.07
-51.50
-41.78
-26.05
-3.54
22.36
43.21
48.68
32.94
-0.81
-40.54
-70.89
-80.91
-69.69
-45.50
-20.26
-3.25
2.88
1.62
-0.60
1.75
11.41
28.03
48.44
67.18
77.20
72.46
50.51
15.07
-23.92
-54.08
-65.23
-53.63
-23.16
16.33
53.39
79.25
90.05
88.21
80.23
74.24
76.19
88.04
106.94
127.10
142.96
150.80
149.96
141.38
125.98
103.94
75.05
40.17
2.14
-34.42
-64.48
-83.81
-91.06
-88.37
-81.15
-76.38
-79.23
-90.67
-105.55
-114.27
-107.04
-79.83
-38.59
2.63
28.03
29.02
9.97
-13.56
-24.24
-12.91
15.81
45.97
61.12
53.59
29.01
2.44
-11.45
-6.24
13.33
36.23
52.24
57.59
55.42
51.69
50.38
51.17
50.43
44.41
32.03
15.03
-3.32
-20.25
-34.36
-45.53
-53.95
-59.17
-59.96
-55.47
-46.25
-34.06
-21.11
-8.87
3.61
17.91
34.82
51.70
62.40
60.40
42.18
11.16
-23.74
-51.55
-65.15
-65.20
-58.63
-54.71
-59.17
-71.11
-84.82
-93.04
-91.15
-79.25
-61.56
-43.93
-31.55
-26.79
-29.08
-35.39
-41.88
-44.81
-41.59
-31.27
-13.49
10.74
39.69
70.96
101.35
127.53
146.86
158.15
161.52
158.07
148.37
132.27
110.02
82.69
52.62
22.67
-5.12
-29.49
-49.34
-62.98
-68.30
-64.31
-53.47
-41.03
-34.23
-37.68
-51.31
-69.66
-84.93
-90.37
-83.44
-66.60
-44.38
-21.40
-0.67
16.81
30.33
39.34
43.10
40.72
31.79
17.22
-0.69
-17.66
-28.16
-26.81
-11.28
15.84
46.42
69.73
77.11
65.61
39.86
9.28
-16.81
-32.88
-38.73
-37.28
-31.72
-23.49
-13.10
-1.32
9.26
14.27
10.98
0.02
-13.41
-21.91
-20.15
-7.14
13.10
34.22
51.04
62.24
69.73
76.53
83.93
90.16
91.71
86.23
74.36
59.85
47.01
37.88
30.91
21.91
7.78
-11.35
-31.09
-45.54
-51.00
-48.62
-44.37
-45.98
-57.89
-78.76
-101.82
-118.77
-123.99
-117.42
-103.67
-88.20
-74.10
-61.02
-46.23
-27.98
-7.65
10.24
20.86
21.72
14.59
5.00
-0.73
1.50
10.96
23.50
34.30
40.31
41.74
40.34
37.24
30.99
18.53
-2.25
-29.34
-56.43
-75.22
-79.52
-69.78
-52.82
-38.38
-34.27
-42.02
-56.32
-67.32
-65.67
-45.93
-9.25
37.22
83.30
119.24
139.23
142.35
131.83
112.21
87.43
58.97
26.70
-9.02
-45.70
-77.85
-98.67
-103.47
-92.70
-71.95
-50.28
-35.46
-30.46
-32.68
-35.18
-31.54
-18.48
2.47
26.95
50.57
70.90
87.52
100.21
108.56
111.38
108.47
101.35
92.81
84.64
76.37
65.34
48.41
24.76
-2.86
-28.97
-47.78
-56.50
-56.69
-53.21
-52.27
-58.04
-70.95
-88.35
-105.31
-116.96
-119.78
-111.95
-93.71
-67.03
-36.11
-6.37
16.88
30.20
33.92
31.79
29.88
33.14
43.34
58.74
75.68
90.81
102.40
110.05
112.63
107.54
91.86
63.87
26.01
-15.53
-52.64
-78.66
-91.45
-92.86
-86.81
-76.64
-63.72
-47.41
-27.10
-4.51
16.58
31.46
37.46
35.95
33.03
36.20
50.53
75.59
105.22
130.57
143.90
142.41
128.08
106.08
80.73
53.79
24.46
-8.45
-42.94
-74.01
-94.55
-99.99
-90.91
-73.30
-56.16
-46.94
-48.41
-57.63
-69.29
-79.11
-85.88
-91.66
-98.54
-106.31
-112.41
-113.96
-110.28
-104.49
-102.06
-107.05
-119.64
-135.22
-146.76
-147.81
-134.75
-107.57
-69.38
-25.66
17.35
53.33
78.32
91.28
95.01
94.88
96.03
101.10
108.73
114.54
113.77
104.22
88.12
71.07
59.57
57.01
62.16
69.85
73.15
67.68
53.75
36.55
22.68
16.50
17.13
19.60
18.39
10.94
-0.32
-10.26
-14.23
-11.54
-5.52
-0.93
-0.00
-1.50
-2.45
-0.44
3.76
7.25
7.05
2.29
-4.61
-10.73
-14.34
-16.23
-18.82
-23.92
-31.16
-37.67
-40.42
-37.41
-28.96
-16.82
-2.84
11.73
25.87
38.34
47.72
52.48
52.19
46.62
35.66
19.12
-2.92
-28.52
-52.94
-69.52
-72.87
-61.34
-38.49
-11.09
14.79
36.70
56.04
74.98
92.99
105.98
107.89
95.06
69.08
36.92
7.43
-12.20
-19.61
-17.12
-9.64
-2.55
0.27
-3.11
-11.43
-21.16
-26.76
-24.12
-12.91
2.62
14.47
15.83
4.24
-16.87
-40.56
-60.16
-72.31
-77.30
-76.95
-72.27
-63.03
-49.37
-34.20
-23.00
-20.85
-28.57
-40.30
-45.71
-35.87
-8.59
28.48
60.95
74.14
60.87
25.60
-17.83
-52.20
-65.24
-53.97
-25.84
6.15
30.57
41.79
41.67
36.30
30.90
26.38
19.67
7.00
-11.89
-32.12
-46.60
-49.73
-41.00
-25.66
-11.65
-5.40
-9.16
-20.39
-33.55
-43.55
-47.03
-43.10
-32.90
-18.88
-3.83
10.39
23.87
38.27
55.14
73.09
86.44
86.50
66.81
28.01
-19.80
-59.77
-75.53
-57.92
-9.35
57.45
125.47
179.70
210.81
216.15
197.57
158.51
103.89
40.43
-23.34
-78.06
-115.56
-132.38
-130.88
-117.83
-102.04
-90.12
-84.57
-84.35
-86.55
-88.77
-90.13
-91.03
-91.14
-89.36
-83.56
-72.02
-54.95
-34.38
-13.82
3.11
13.55
16.08
10.65
-1.62
-18.47
-36.59
-51.94
-60.66
-60.03
-49.06
-28.87
-2.86
24.13
46.58
59.05
58.13
42.88
15.58
-17.86
-49.11
-68.58
-68.10
-43.77
0.62
53.86
99.87
124.09
120.65
94.78
60.99
35.68
29.54
43.27
69.76
99.62
126.05
147.69
166.14
182.46
194.86
199.55
193.67
178.16
158.16
139.79
127.00
118.62
109.45
93.47
67.03
30.73
-11.68
-55.11
-96.14
-132.31
-161.85
-182.00
-188.94
-180.07
-156.45
-124.38
-93.38
-72.51
-65.73
-71.15
-82.98
-94.44
-101.75
-104.72
-105.37
-105.23
-104.20
-100.16
-90.42
-74.07
-52.66
-30.14
-11.30
0.74
5.26
3.99
-0.39
-5.84
-11.96
-18.89
-26.58
-33.98
-38.71
-38.18
-30.92
-17.59
-0.39
17.58
33.44
45.71
54.40
60.69
65.56
69.63
72.23
71.17
63.77
48.51
26.94
3.04
-17.88
-32.47
-40.59
-44.49
-46.81
-47.92
-46.14
-39.19
-27.00
-12.99
-2.80
-0.56
-5.49
-12.35
-13.73
-4.91
13.72
35.81
52.95
58.36
49.63
29.26
2.92
-22.67
-42.11
-51.89
-51.02
-41.24
-26.37
-12.03
-3.33
-3.71
-13.37
-29.66
-47.68
-61.88
-67.65
-62.04
-44.95
-18.59
12.87
44.31
70.97
89.66
100.34
105.00
106.65
106.61
104.35
98.06
87.11
74.27
64.96
64.90
76.94
99.04
123.99
142.72
148.34
138.09
114.09
81.21
44.97
9.95
-20.60
-44.41
-60.26
-67.76
-68.09
-63.33
-56.00
-48.66
-43.54
-42.51
-46.45
-55.35
-67.74
-81.51
-93.56
-100.49
-99.12
-87.65
-66.96
-40.94
-15.31
4.98
18.36
27.84
38.78
54.93
75.63
95.19
105.24
99.10
75.82
40.93
3.48
-27.67
-47.82
-57.58
-61.39
-65.13
-72.66
-84.58
-97.69
-107.11
-108.52
-100.24
-83.71
-62.65
-40.79
-20.09
-0.98
16.30
30.74
40.27
43.87
42.32
37.62
30.93
21.08
4.49
-21.55
-56.12
-93.42
-125.26
-144.94
-150.34
-144.49
-132.78
-119.79
-106.81
-92.17
-73.95
-51.51
-26.92
-3.10
17.68
34.94
49.43
61.99
72.44
80.05
85.05
89.50
96.66
108.91
125.16
140.78
149.37
146.25
131.29
110.00
91.15
83.17
90.21
110.16
135.36
155.44
160.85
146.62
114.04
70.08
25.45
-9.10
-26.37
-24.22
-6.04
21.02
48.61
69.61
79.24
76.12
61.86
40.10
14.86
-11.00
-36.14
-60.63
-84.95
-108.46
-129.28
-144.41
-151.89
-151.95
-147.14
-141.56
-138.12
-137.12
-134.87
-125.59
-105.16
-74.28
-39.80
-11.82
2.14
1.29
-7.53
-14.18
-11.02
2.76
21.88
39.14
49.90
54.38
56.35
59.94
66.90
75.64
82.31
82.88
74.97
59.72
41.24
25.30
16.43
14.83
15.52
10.90
-3.97
-27.82
-52.28
-67.15
-66.65
-52.83
-34.24
-20.25
-15.45
-18.32
-23.75
-27.88
-29.86
-31.26
-33.06
-34.96
-35.96
-36.63
-38.91
-43.82
-48.94
-47.88
-33.77
-3.59
38.09
81.12
113.83
127.49
119.52
92.48
52.71
8.05
-33.06
-63.31
-77.61
-75.03
-60.27
-41.24
-25.75
-17.59
-15.13
-13.02
-6.43
5.44
19.47
30.57
35.86
36.34
37.02
43.24
57.73
78.67
100.10
115.15
118.74
110.68
94.94
78.12
66.20
61.14
60.84
60.01
53.85
41.08
24.98
10.52
0.46
-7.03
-18.81
-42.28
-79.84
-126.43
-170.87
-200.84
-208.65
-194.13
-163.31
-125.51
-89.92
-63.50
-50.01
-50.00
-60.22
-74.98
-88.45
-96.09
-96.23
-89.12
-75.27
-54.51
-26.54
7.32
42.58
71.94
87.84
86.07
68.01
40.64
14.15
-2.00
-2.22
12.82
37.14
61.85
78.81
83.72
77.81
66.11
53.94
44.39
36.99
29.97
22.18
14.08
7.79
5.03
5.73
8.84
13.79
20.76
30.95
44.27
57.83
66.51
64.93
50.33
24.36
-6.85
-35.78
-55.84
-62.82
-55.81
-35.93
-6.49
27.07
57.18
75.69
75.59
54.88
18.29
-23.53
-57.22
-72.68
-66.74
-44.32
-15.78
8.12
20.60
20.52
11.43
-0.45
-9.26
-10.38
-1.01
19.56
49.10
81.54
107.96
119.08
109.92
81.98
43.35
4.70
-25.86
-45.52
-56.56
-62.65
-66.51
-68.24
-67.39
-64.99
-63.73
-65.96
-71.40
-76.02
-74.13
-62.01
-40.50
-14.85
8.00
22.92
27.96
24.04
13.13
-3.02
-22.92
-43.75
-60.16
-66.48
-59.50
-41.16
-18.71
-1.77
3.35
-2.90
-13.36
-17.59
-8.44
14.41
44.03
69.74
83.22
81.80
68.81
50.25
30.51
10.87
-10.14
-34.00
-59.50
-81.76
-93.97
-90.41
-69.90
-37.09
-0.38
31.84
54.81
68.63
77.05
83.96
89.86
91.69
85.62
70.45
50.23
33.10
26.84
34.02
49.93
64.17
66.61
51.85
22.54
-12.73
-43.02
-60.27
-62.63
-53.70
-40.64
-30.05
-25.34
-25.47
-26.92
-25.82
-20.87
-13.89
-8.92
-10.09
-18.99
-34.28
-52.55
-69.40
-80.45
-82.69
-74.26
-55.38
-28.64
1.52
29.57
50.33
60.87
60.85
53.04
41.52
30.89
24.17
21.82
22.04
21.57
18.03
11.40
4.36
0.71
4.00
15.21
32.91
53.73
73.79
89.16
95.35
87.52
61.88
17.54
-41.67
-105.95
-162.28
-197.67
-204.31
-181.73
-137.06
-82.25
-30.34
8.89
30.72
35.83
28.45
14.18
-0.89
-11.37
-12.16
0.47
27.42
65.11
104.92
135.47
146.47
132.83
96.31
45.14
-9.40
-56.25
-87.94
-101.79
-99.36
-85.32
-65.33
-44.31
-25.59
-10.10
2.35
12.20
19.04
22.56
22.59
20.17
17.03
15.06
15.05
16.93
20.83
27.14
36.49
47.89
57.87
60.98
52.32
30.82
-0.25
-33.37
-60.83
-77.07
-80.85
-74.30
-60.73
-42.89
-22.18
0.69
25.04
49.15
70.47
85.81
92.18
88.23
74.77
55.20
34.28
16.30
2.71
-8.46
-21.84
-41.24
-67.04
-95.88
-121.55
-138.13
-142.69
-136.48
-124.48
-111.87
-101.56
-91.78
-77.22
-51.50
-11.24
41.02
98.03
149.93
188.64
210.87
217.95
213.44
200.74
181.13
153.70
118.25
77.12
35.44
-0.60
-26.93
-42.31
-48.27
-47.54
-42.16
-33.63
-23.79
-15.58
-12.41
-17.51
-32.08
-54.91
-82.51
-109.72
-131.13
-142.30
-140.89
-127.43
-105.91
-82.22
-62.57
-50.81
-46.24
-43.99
-37.10
-19.71
10.23
49.54
91.45
127.51
149.75
153.81
139.85
113.75
85.12
63.36
53.59
53.75
55.99
51.41
36.37
14.99
-3.05
-8.90
-1.15
13.52
24.29
23.61
11.77
-3.65
-13.46
-12.81
-3.59
7.53
14.29
13.47
5.00
-10.61
-33.59
-64.40
-100.29
-134.01
-155.93
-158.47
-141.25
-111.71
-81.54
-61.01
-54.04
-57.60
-64.27
-66.60
-60.78
-47.52
-30.09
-11.53
6.43
24.03
42.10
61.24
80.66
98.19
111.30
118.05
118.07
112.07
101.73
88.06
71.26
50.20
23.33
-9.94
-47.67
-84.84
-114.38
-128.76
-123.24
-98.40
-60.58
-19.38
16.27
41.46
57.17
69.03
83.15
102.72
125.86
147.35
160.82
162.11
150.05
126.64
95.87
62.16
29.94
3.12
-15.34
-24.21
-24.11
-18.14
-10.86
-7.38
-12.45
-28.89
-56.33
-90.17
-122.76
-145.84
-154.51
-148.94
-135.09
-121.65
-116.47
-123.15
-139.86
-160.24
-176.45
-182.08
-174.27
-153.75
-124.29
-90.03
-54.73
-21.79
5.56
23.81
29.70
22.76
6.06
-13.67
-28.29
-31.38
-21.03
0.63
29.31
60.90
93.03
124.03
151.92
174.03
187.49
191.01
185.11
171.73
152.70
130.01
106.13
84.16
67.55
58.19
54.90
53.35
47.65
33.08
8.68
-22.18
-53.03
-76.39
-87.21
-84.35
-71.37
-54.45
-40.34
-32.53
-30.70
-31.33
-30.46
-27.57
-25.65
-29.18
-40.13
-55.86
-69.80
-75.78
-72.01
-61.82
-51.55
-45.55
-42.74
-37.96
-25.66
-4.33
21.71
44.17
55.83
54.01
42.23
27.44
16.26
12.68
16.79
25.88
36.08
44.23
47.86
47.03
44.05
42.64
47.16
59.26
76.86
94.90
107.92
112.83
111.23
107.33
104.80
104.85
104.91
101.59
93.61
82.26
70.58
60.52
51.91
42.51
30.52
16.01
1.99
-7.88
-11.48
-9.12
-3.60
1.61
4.03
3.25
0.61
-1.96
-3.94
-7.30
-15.89
-33.72
-61.67
-96.00
-128.68
-150.93
-156.64
-145.10
-121.21
-92.38
-65.59
-44.64
-29.76
-19.54
-12.18
-7.24
-5.91
-10.04
-20.62
-36.59
-54.89
-70.73
-79.63
-79.13
-70.10
-56.07
-41.50
-29.77
-21.17
-13.94
-5.72
4.41
15.16
23.72
27.45
24.99
16.65
4.28
-10.46
-25.58
-38.87
-47.71
-49.21
-41.59
-25.74
-6.37
10.11
18.23
16.03
6.67
-3.91
-9.45
-7.26
1.37
11.84
18.91
18.82
10.27
-5.77
-27.13
-50.42
-72.13
-88.14
-95.38
-92.57
-80.78
-62.61
-40.94
-18.16
5.14
28.26
50.15
68.30
79.04
79.60
69.87
52.63
32.55
14.77
2.29
-4.85
-8.56
-11.56
-15.12
-18.58
-19.40
-15.21
-5.33
8.79
23.66
35.72
43.16
47.53
52.75
63.12
80.88
104.26
127.51
143.11
144.73
130.01
101.79
66.88
33.82
10.34
0.36
3.70
16.18
31.44
42.98
46.65
41.39
28.94
13.12
-2.41
-15.31
-24.64
-30.49
-32.73
-30.79
-23.96
-12.26
2.44
15.95
22.91
19.44
4.53
-18.21
-42.07
-59.62
-65.99
-60.67
-47.40
-31.56
-16.92
-4.48
7.89
21.44
35.24
45.08
46.14
36.31
17.79
-3.08
-19.67
-27.61
-26.83
-20.79
-13.76
-9.16
-8.19
-10.25
-14.36
-19.45
-24.00
-25.63
-22.12
-12.32
2.65
19.56
34.15
43.25
45.62
42.58
36.56
29.63
22.47
13.99
3.64
-8.34
-20.24
-29.48
-34.69
-35.79
-34.83
-34.07
-35.46
-39.31
-44.31
-48.54
-50.24
-49.21
-46.51
-44.23
-44.10
-47.11
-52.61
-58.65
-62.72
-63.09
-59.62
-53.87
-48.30
-44.44
-42.52
-41.08
-38.23
-33.13
-26.45
-20.80
-18.15
-18.27
-18.22
-13.15
0.60
23.75
52.44
80.61
101.87
112.86
113.98
108.10
99.23
89.81
80.87
71.89
62.63
53.24
44.20
35.64
26.65
16.07
3.25
-11.40
-26.17
-39.01
-49.06
-56.84
-63.81
-71.44
-79.51
-86.09
-88.50
-84.85
-75.29
-61.81
-47.10
-32.89
-19.78
-6.75
7.38
23.67
42.31
61.54
77.97
87.27
86.87
77.24
63.11
51.47
47.81
53.10
62.33
66.36
57.02
30.83
-8.64
-52.42
-89.59
-112.10
-116.51
-104.20
-80.13
-50.46
-21.43
1.38
13.98
14.07
1.59
-20.60
-47.32
-72.00
-88.02
-91.81
-83.52
-67.04
-47.77
-30.26
-16.45
-5.86
2.94
10.73
17.57
22.70
26.31
29.07
32.19
36.70
42.73
49.24
55.30
60.32
64.06
66.34
65.88
61.01
50.60
34.92
16.59
-0.36
-10.98
-11.17
1.38
25.06
54.69
82.65
101.44
106.99
100.26
87.21
75.10
69.15
69.36
71.21
68.94
58.76
41.99
23.50
9.05
1.59
0.49
2.14
2.28
-1.82
-10.76
-22.82
-36.00
-48.27
-58.37
-64.94
-66.94
-64.45
-58.36
-51.35
-46.05
-43.92
-45.00
-47.62
-50.27
-51.51
-50.79
-47.65
-41.82
-32.88
-21.15
-7.91
5.52
17.75
28.02
35.34
38.21
34.51
22.85
4.26
-17.16
-35.73
-46.79
-48.78
-44.04
-36.91
-31.15
-27.80
-24.98
-19.87
-10.10
4.10
19.72
32.54
38.60
36.11
25.95
11.66
-2.43
-12.72
-17.66
-18.26
-16.60
-15.16
-15.24
-16.66
-18.28
-19.26
-19.97
-22.15
-28.07
-38.47
-51.56
-63.20
-68.74
-65.82
-56.23
-46.10
-42.54
-50.63
-69.68
-93.32
-110.97
-112.85
-94.08
-56.71
-9.70
34.99
67.24
83.67
88.28
90.30
99.06
118.37
145.40
172.20
190.24
194.16
183.62
161.48
132.10
99.08
64.83
31.74
2.03
-22.27
-40.26
-52.74
-61.99
-71.14
-81.72
-93.39
-103.36
-108.17
-105.89
-97.55
-87.31
-79.77
-77.93
-80.58
-83.13
-80.06
-68.47
-49.86
-28.81
-10.56
2.96
13.31
24.48
39.98
60.58
83.76
104.78
118.95
122.79
114.98
96.46
70.00
40.49
14.02
-3.00
-5.47
8.76
36.98
72.20
105.39
127.88
134.99
126.65
106.99
81.59
54.72
28.20
2.05
-23.35
-46.54
-65.05
-77.70
-85.56
-92.01
-100.73
-113.65
-129.67
-144.31
-152.49
-149.62
-134.19
-108.42
-77.76
-49.61
-29.66
-19.82
-16.52
-12.16
1.20
26.50
59.08
88.35
102.17
93.80
64.24
21.52
-23.86
-63.45
-92.51
-109.56
-114.18
-106.23
-86.41
-57.49
-24.66
5.91
30.24
47.33
58.66
66.18
70.15
69.43
62.68
50.14
34.24
19.27
9.55
7.87
14.09
24.86
35.02
39.52
35.44
23.25
6.30
-11.14
-26.16
-37.94
-46.65
-52.05
-51.93
-42.98
-23.76
3.40
31.41
51.61
57.17
46.53
24.02
-2.21
-23.17
-32.71
-29.09
-15.34
2.71
18.63
27.67
29.25
25.94
22.40
22.04
26.09
33.10
40.70
46.93
50.62
51.42
48.83
42.70
32.94
21.07
10.46
5.66
10.89
27.45
53.10
81.76
106.33
120.77
122.89
114.10
97.90
78.55
59.23
41.65
26.04
12.24
-0.25
-12.28
-24.34
-36.91
-49.20
-59.48
-65.14
-64.31
-56.65
-44.45
-31.89
-23.45
-22.07
-27.13
-34.83
-40.54
-41.22
-37.59
-34.14
-36.01
-44.72
-56.47
-63.61
-59.53
-42.72
-18.04
5.48
19.84
22.01
14.56
2.89
-7.89
-15.09
-19.08
-21.17
-22.47
-23.61
-24.77
-26.39
-29.42
-34.74
-42.53
-52.23
-62.64
-71.54
-76.13
-73.47
-62.42
-44.48
-23.78
-5.27
7.53
14.48
18.36
21.59
24.27
23.35
15.57
0.27
-18.78
-34.27
-39.87
-33.66
-18.93
-1.51
13.89
26.26
37.20
47.93
57.11
61.06
57.25
46.36
33.65
25.95
27.74
38.64
53.56
65.75
69.56
63.04
47.82
28.83
12.37
3.82
5.81
16.11
27.72
30.03
13.54
-25.87
-83.66
-146.52
-196.65
-217.41
-199.77
-145.69
-68.19
13.45
79.16
114.85
116.85
91.41
52.40
14.92
-9.01
-13.85
-0.28
26.21
57.02
82.86
95.25
88.84
62.84
21.69
-25.94
-69.44
-99.70
-111.66
-105.18
-84.98
-58.50
-34.42
-20.71
-22.23
-39.31
-66.07
-91.81
-104.06
-93.81
-59.26
-7.03
50.17
99.54
132.83
148.96
152.41
149.14
142.06
130.16
110.77
82.54
48.34
13.96
-15.34
-36.82
-51.06
-60.13
-64.77
-63.41
-53.62
-33.82
-5.37
27.35
58.83
83.53
97.70
99.10
87.66
65.59
37.73
11.13
-7.19
-12.75
-6.48
5.71
15.01
12.88
-5.49
-39.60
-84.24
-131.15
-171.12
-196.72
-202.96
-187.94
-153.35
-104.32
-49.51
1.00
38.40
57.69
58.68
45.14
22.88
-2.31
-25.12
-41.11
-46.51
-39.54
-21.49
2.49
24.01
35.43
33.60
22.91
13.96
18.49
42.88
83.68
129.16
164.21
177.54
166.15
135.33
94.80
52.90
13.28
-24.91
-63.00
-99.71
-129.03
-143.32
-137.68
-113.54
-78.96
-45.22
-22.21
-13.96
-18.56
-29.67
-40.29
-46.23
-46.44
-42.92
-37.67
-31.74
-24.41
-14.47
-1.16
15.47
33.74
51.59
66.70
77.53
83.82
85.82
84.30
79.29
70.51
58.01
43.92
31.89
26.25
29.47
40.15
53.01
60.89
59.52
49.12
34.51
21.64
13.88
11.35
11.68
13.86
19.29
30.81
49.10
70.76
88.45
94.15
84.10
60.77
32.13
7.04
-9.06
-15.94
-17.44
-17.61
-18.50
-19.62
-19.98
-19.68
-20.73
-25.95
-36.90
-52.52
-69.49
-84.18
-94.25
-99.30
-100.54
-98.62
-93.29
-83.42
-68.56
-50.34
-32.06
-18.02
-11.65
-14.15
-23.83
-36.69
-47.53
-52.03
-47.70
-34.56
-15.61
4.24
19.78
27.16
25.63
17.81
8.23
1.19
-1.53
-1.06
-0.62
-2.90
-8.78
-16.71
-24.24
-29.19
-31.35
-31.84
-32.74
-35.68
-41.33
-49.08
-56.69
-60.87
-57.80
-44.57
-21.46
7.90
37.54
61.77
77.75
86.95
93.09
99.58
107.38
114.44
117.95
116.47
110.55
101.52
89.79
74.05
52.83
27.23
1.51
-18.11
-27.14
-26.10
-21.14
-20.51
-29.98
-48.92
-70.56
-85.86
-88.49
-79.01
-64.85
-55.80
-58.74
-72.61
-88.92
-94.91
-80.36
-42.72
10.67
64.84
103.55
115.76
99.53
61.95
15.49
-27.79
-59.68
-77.09
-80.68
-73.03
-57.55
-38.15
-19.93
-8.13
-7.33
-19.22
-41.11
-66.34
-85.68
-91.14
-78.14
-47.40
-4.79
40.58
79.66
107.37
123.57
132.80
140.53
150.35
162.30
173.07
178.52
174.90
159.96
133.05
96.15
53.89
13.28
-18.23
-35.73
-39.33
-33.97
-25.47
-17.38
-8.30
5.20
24.36
45.78
62.05
66.90
59.12
43.20
25.95
11.75
0.16
-12.90
-30.68
-52.67
-73.29
-84.95
-81.38
-60.51
-25.27
17.86
59.86
92.09
107.75
103.92
81.98
47.28
7.15
-31.03
-60.94
-78.48
-82.19
-73.92
-58.62
-43.62
-36.26
-40.83
-56.44
-76.83
-93.65
-100.71
-97.08
-88.18
-82.02
-85.17
-99.09
-119.55
-138.12
-145.98
-137.17
-110.15
-67.96
-16.21
37.56
85.87
122.21
141.71
142.07
124.35
92.93
54.25
15.28
-17.23
-38.13
-44.31
-36.21
-18.02
2.99
18.73
23.39
15.86
-0.10
-18.64
-34.73
-46.55
-54.48
-58.92
-58.72
-51.03
-33.66
-8.27
18.24
36.62
39.30
24.81
-1.23
-28.89
-48.76
-56.69
-54.98
-50.84
-51.83
-61.30
-76.70
-90.38
-93.96
-82.67
-58.35
-28.98
-4.98
6.21
3.84
-6.21
-14.19
-12.51
1.05
23.15
47.67
70.22
89.06
104.70
117.17
124.54
123.56
112.79
95.34
78.05
68.88
72.91
89.59
112.34
132.25
141.98
137.95
121.01
94.63
63.69
32.96
6.38
-13.65
-26.84
-34.81
-40.16
-44.44
-47.16
-45.66
-38.12
-25.72
-12.96
-6.23
-9.35
-21.32
-35.53
-43.67
-40.81
-28.94
-15.73
-8.61
-9.45
-13.09
-11.68
-1.01
14.95
26.01
23.35
6.05
-16.82
-31.86
-29.48
-10.27
15.97
36.15
41.14
29.99
8.21
-16.76
-39.64
-57.90
-69.85
-72.96
-64.52
-44.41
-16.52
10.88
29.11
32.70
22.20
3.47
-16.03
-30.76
-40.05
-47.61
-59.35
-79.53
-107.89
-138.54
-161.25
-165.80
-146.16
-103.90
-48.32
5.80
43.71
56.81
45.09
17.19
-13.67
-34.82
-38.54
-24.31
2.10
32.07
57.63
73.63
79.09
75.96
67.49
55.86
41.51
24.02
3.19
-18.87
-38.03
-49.70
-51.51
-44.73
-34.11
-25.73
-22.74
-24.05
-25.03
-20.36
-7.66
11.40
31.70
48.33
58.64
62.93
63.45
61.98
58.99
53.93
46.54
37.74
29.54
23.36
18.77
13.37
4.05
-11.07
-31.03
-51.13
-64.93
-67.00
-56.15
-36.77
-17.37
-6.96
-10.35
-26.09
-46.67
-62.06
-64.39
-49.96
-20.18
20.48
65.85
109.25
143.82
163.54
165.76
153.53
135.12
119.72
111.74
107.05
94.61
63.05
8.57
-61.08
-128.93
-176.04
-189.74
-168.19
-119.66
-57.89
3.65
54.90
90.68
109.56
113.11
105.24
91.10
76.64
66.71
63.55
66.12
70.62
72.46
68.66
58.92
45.04
29.31
13.26
-3.30
-21.45
-41.76
-62.77
-81.46
-94.22
-99.58
-99.18
-97.12
-97.98
-103.62
-111.79
-117.35
-115.92
-106.62
-93.56
-83.19
-79.97
-83.41
-87.77
-85.87
-73.44
-52.09
-28.27
-8.71
3.12
8.16
9.93
11.72
14.33
16.37
16.29
13.57
8.81
2.98
-2.58
-6.13
-3.87
8.77
34.39
70.35
107.66
134.61
142.73
132.75
115.18
105.70
116.16
147.13
187.10
217.57
222.36
195.16
141.99
76.88
14.73
-33.96
-65.38
-80.26
-81.24
-71.28
-54.55
-37.63
-29.12
-37.16
-65.40
-110.30
-160.84
-202.81
-224.74
-222.61
-200.69
-167.74
-131.62
-95.85
-60.34
-24.64
8.06
30.55
35.02
17.94
-15.62
-52.95
-78.50
-81.39
-60.25
-23.04
17.34
50.05
69.74
76.88
74.96
67.42
56.44
43.67
32.38
27.26
32.58
48.74
71.22
92.22
105.16
108.90
107.87
108.35
113.21
119.13
118.78
105.73
78.57
42.54
6.63
-21.51
-38.95
-48.89
-57.52
-70.24
-88.91
-110.98
-131.30
-143.98
-145.25
-134.61
-114.57
-89.22
-62.51
-37.46
-15.50
2.92
18.25
31.87
46.53
65.56
90.98
120.81
148.05
162.78
156.66
127.74
83.47
38.69
9.69
7.08
30.46
68.31
103.09
118.01
104.44
65.50
13.51
-35.77
-70.52
-86.63
-87.87
-81.66
-74.14
-67.75
-61.80
-55.96
-52.78
-57.60
-75.74
-108.15
-148.59
-184.98
-203.78
-195.96
-161.65
-110.17
-56.29
-14.52
6.79
7.46
-5.41
-21.40
-30.80
-28.02
-12.34
13.02
42.46
70.98
94.95
113.15
125.95
134.62
139.54
139.75
133.79
120.85
102.62
83.55
68.67
61.84
63.39
70.46
79.18
86.25
89.79
89.20
83.99
73.81
59.33
42.23
25.02
9.68
-4.11
-18.78
-37.64
-62.54
-93.11
-125.91
-155.88
-177.94
-188.13
-184.81
-168.83
-143.36
-113.40
-84.52
-60.54
-42.56
-29.21
-17.33
-4.93
7.77
17.36
18.93
8.53
-14.53
-46.12
-78.29
-101.28
-107.58
-94.36
-64.45
-25.20
14.73
47.56
69.15
78.08
75.51
63.60
45.81
27.38
14.50
13.71
28.78
59.51
100.40
142.22
173.68
184.58
169.01
126.97
65.96
-1.87
-62.79
-106.11
-126.33
-123.70
-102.51
-67.70
-24.40
22.94
68.41
104.45
122.92
118.41
91.73
49.61
3.32
-36.47
-62.74
-73.58
-70.89
-58.11
-38.85
-16.38
5.50
23.57
35.38
41.24
43.78
46.25
50.52
55.66
59.98
62.74
66.43
74.75
89.50
107.27
119.02
114.90
89.68
47.33
-0.67
-40.48
-63.64
-71.73
-74.50
-84.05
-106.95
-140.79
-175.51
-198.56
-200.77
-179.80
-140.12
-90.02
-38.78
5.94
38.57
56.57
60.19
51.75
34.85
13.44
-8.14
-25.15
-32.16
-24.50
-0.80
34.93
73.22
102.40
113.59
104.52
80.03
49.36
22.29
5.61
1.89
9.09
21.48
30.87
28.46
8.94
-26.06
-66.44
-97.07
-104.84
-85.89
-49.02
-12.08
6.38
-3.83
-40.55
-90.51
-135.61
-161.28
-161.37
-140.08
-108.95
-81.02
-65.15
-62.56
-66.99
-68.43
-59.21
-37.53
-8.64
18.77
37.19
43.65
40.11
31.00
20.32
10.16
2.16
-1.57
2.77
18.99
48.27
86.93
126.76
158.55
175.45
176.29
164.47
145.20
122.89
99.10
73.74
47.06
21.11
-0.90
-16.31
-25.33
-31.85
-41.05
-56.53
-77.61
-99.03
-113.49
-115.32
-103.77
-82.82
-59.32
-38.78
-22.83
-7.95
11.41
38.74
72.03
103.92
125.02
128.89
116.43
95.27
76.03
66.09
65.59
68.72
67.95
58.64
40.96
18.36
-6.27
-32.11
-59.10
-86.06
-108.39
-119.16
-112.82
-88.27
-50.87
-10.70
21.73
40.06
43.93
38.98
32.63
30.60
34.32
41.19
46.91
48.04
44.58
39.03
34.52
32.22
30.58
26.43
17.29
3.77
-11.50
-25.77
-38.21
-50.67
-65.55
-84.19
-104.71
-123.05
-134.85
-137.55
-131.79
-120.40
-106.97
-93.81
-81.51
-69.61
-58.60
-49.68
-44.30
-41.88
-39.26
-31.57
-14.52
12.07
44.42
76.06
100.73
115.59
121.68
122.66
122.17
122.41
123.41
123.13
119.10
108.92
92.41
71.60
50.87
35.11
26.85
24.95
24.85
21.69
12.88
0.47
-11.40
-19.76
-25.73
-33.99
-49.09
-70.81
-92.72
-105.06
-100.69
-80.15
-51.62
-25.75
-9.98
-4.36
-3.00
0.92
9.93
20.82
27.18
24.35
12.66
-2.65
-14.77
-19.54
-17.63
-13.75
-13.45
-20.19
-33.90
-51.42
-69.12
-83.54
-92.55
-95.85
-94.08
-88.71
-81.12
-71.42
-58.82
-41.78
-19.53
6.42
31.72
50.83
58.27
51.66
32.83
7.44
-17.29
-35.09
-42.46
-38.95
-26.24
-6.41
18.47
46.99
77.33
106.66
131.72
148.95
156.28
153.46
141.87
123.74
101.09
75.44
48.27
22.00
-0.78
-17.21
-26.38
-29.70
-30.77
-33.81
-41.72
-54.36
-68.82
-80.80
-86.54
-84.53
-75.81
-63.79
-52.51
-44.57
-39.57
-34.25
-24.33
-6.94
17.12
43.11
64.86
77.19
78.81
72.03
61.75
52.26
45.81
42.58
41.44
41.44
41.58
40.35
34.25
19.16
-8.25
-47.00
-90.61
-127.85
-146.36
-138.25
-102.94
-48.57
11.31
62.60
95.00
105.32
97.00
77.86
56.12
37.15
22.23
9.42
-3.67
-17.44
-29.05
-34.37
-30.39
-17.94
-1.10
14.84
26.28
33.15
37.74
42.07
44.63
40.77
25.39
-2.60
-36.97
-65.60
-75.28
-59.17
-20.54
27.71
69.30
91.96
92.54
77.15
56.37
40.35
33.78
35.34
39.93
42.13
38.22
26.84
8.91
-13.69
-38.86
-65.10
-91.46
-117.20
-140.93
-159.05
-166.81
-160.26
-139.36
-108.97
-77.38
-53.24
-40.74
-38.92
-42.97
-48.07
-52.13
-55.84
-60.85
-67.38
-73.03
-74.25
-68.87
-56.45
-38.83
-18.67
2.36
23.71
45.41
66.65
85.53
99.11
104.97
102.32
93.34
82.32
73.79
71.18
74.93
82.38
89.20
90.98
85.94
75.21
62.80
53.57
50.96
55.82
65.56
75.49
80.64
77.80
67.18
52.91
41.04
36.94
42.74
55.68
69.84
78.55
77.33
65.79
47.00
24.86
2.43
-19.40
-40.98
-61.45
-78.11
-86.43
-82.84
-68.13
-47.83
-30.66
-24.37
-31.79
-49.63
-70.15
-85.09
-89.64
-84.12
-72.84
-61.24
-52.97
-49.26
-49.11
-50.95
-53.82
-56.75
-58.63
-57.72
-52.31
-42.33
-30.03
-19.81
-16.42
-21.52
-31.46
-38.12
-31.81
-7.57
30.84
71.85
100.44
106.08
88.26
56.27
24.75
5.36
0.95
5.78
9.40
4.08
-10.63
-28.34
-40.45
-41.67
-32.77
-19.06
-6.41
2.70
9.55
16.68
24.27
29.08
26.29
13.41
-6.51
-25.68
-36.19
-35.17
-27.61
-23.61
-32.73
-56.88
-88.94
-116.19
-127.14
-118.20
-94.49
-66.59
-43.73
-29.33
-20.91
-13.90
-5.62
2.67
7.22
5.94
0.47
-3.65
-0.68
12.22
33.33
57.36
79.38
97.02
111.12
123.36
134.23
141.92
143.65
138.39
127.84
116.53
108.90
108.19
114.57
125.15
134.96
137.91
129.48
107.59
74.30
34.94
-3.39
-34.65
-56.05
-68.36
-74.68
-77.21
-76.13
-69.71
-57.03
-39.98
-22.89
-10.98
-7.08
-11.38
-21.65
-34.81
-47.50
-56.25
-57.85
-50.20
-34.05
-13.64
3.56
10.22
2.36
-18.48
-45.10
-67.96
-78.37
-71.29
-46.57
-8.87
33.43
70.68
93.79
98.09
84.62
60.07
33.23
10.68
-5.52
-18.07
-30.93
-46.60
-63.82
-79.00
-89.24
-94.59
-98.14
-103.59
-113.13
-125.48
-136.71
-142.42
-139.89
-129.40
-113.15
-94.27
-74.25
-52.27
-25.89
7.46
47.48
89.76
126.29
148.41
149.55
128.28
88.55
38.05
-13.84
-58.83
-90.29
-103.86
-97.97
-74.61
-39.14
0.82
37.43
65.60
83.59
92.88
95.84
94.36
89.62
82.56
75.42
70.93
71.62
77.38
84.63
87.61
81.07
63.32
36.60
5.74
-24.02
-48.31
-63.63
-66.93
-55.47
-28.97
9.17
50.47
82.94
95.82
83.84
50.20
5.70
-36.23
-65.48
-79.35
-83.01
-85.73
-95.08
-112.53
-132.16
-144.37
-140.47
-117.95
-81.52
-40.88
-6.64
14.47
20.60
14.19
-0.65
-20.62
-43.32
-66.77
-87.52
-100.84
-101.29
-85.55
-53.43
-9.09
39.63
83.92
116.09
132.59
134.74
127.92
119.65
116.31
120.77
131.19
142.78
149.62
147.78
136.43
117.87
96.08
74.75
56.01
39.84
25.12
9.85
-7.56
-27.73
-50.30
-73.01
-91.73
-100.69
-95.03
-72.79
-37.47
2.85
38.15
59.80
63.76
50.23
22.96
-12.90
-51.62
-86.40
-109.02
-111.47
-90.34
-49.65
-1.68
38.02
58.46
58.56
47.01
35.69
31.33
31.81
29.21
17.54
-1.18
-16.88
-18.82
-4.42
16.63
27.48
14.70
-22.10
-68.62
-103.58
-109.76
-82.90
-32.32
25.16
73.76
104.27
114.10
104.86
79.33
41.77
-0.81
-38.09
-59.28
-58.79
-40.02
-15.84
-2.43
-11.17
-42.43
-84.76
-120.66
-135.07
-122.44
-88.27
-45.09
-5.20
24.14
41.57
48.41
44.94
29.53
0.89
-37.51
-75.87
-101.09
-102.76
-79.42
-39.49
3.06
36.71
57.24
68.10
75.62
82.78
86.76
80.84
60.71
28.37
-7.04
-33.83
-43.55
-35.37
-15.89
4.49
16.13
14.10
-0.63
-22.23
-42.67
-54.79
-54.37
-41.11
-18.02
9.53
35.68
55.24
64.89
64.83
58.34
50.23
44.26
40.85
36.51
26.98
11.41
-5.31
-14.03
-7.07
16.60
48.23
73.38
79.22
62.13
29.97
-2.86
-22.88
-25.15
-14.42
-1.45
3.88
-1.99
-15.68
-29.19
-35.56
-32.40
-23.17
-14.71
-13.18
-20.24
-32.16
-42.12
-43.84
-34.68
-16.79
4.07
21.44
30.60
29.41
18.28
-1.20
-25.90
-51.01
-69.72
-75.26
-64.00
-37.62
-3.68
27.22
46.06
49.90
42.69
32.51
26.95
28.38
33.68
35.85
27.97
7.08
-24.88
-62.07
-97.00
-123.49
-138.55
-142.15
-135.64
-120.31
-95.87
-62.22
-21.25
20.88
54.57
70.54
64.11
38.35
2.91
-30.29
-52.86
-62.28
-59.67
-47.05
-24.50
8.10
47.58
85.02
108.54
108.60
84.27
45.74
9.56
-8.57
-1.76
25.53
60.79
89.83
102.84
97.28
77.20
50.15
24.69
8.42
6.89
22.74
53.88
93.13
129.52
151.60
151.58
129.28
92.12
52.08
20.97
4.77
1.31
1.74
-5.11
-27.83
-67.37
-116.63
-163.36
-194.90
-204.24
-192.27
-166.37
-136.24
-108.75
-85.70
-64.24
-41.16
-16.04
7.49
24.01
30.56
28.48
23.76
23.06
29.90
42.61
55.06
60.44
55.09
40.45
21.96
6.67
-0.20
2.78
14.09
30.73
49.48
67.79
83.07
91.77
90.00
74.76
45.40
6.22
-33.63
-62.53
-71.25
-56.78
-24.49
14.39
48.16
69.75
79.43
81.71
81.24
78.64
70.77
54.53
30.38
3.96
-17.58
-30.24
-36.09
-41.45
-51.94
-69.02
-88.97
-106.84
-120.40
-132.16
-146.57
-165.79
-187.02
-202.77
-205.34
-189.80
-155.75
-106.33
-46.44
18.36
82.40
139.07
182.67
209.09
217.63
210.35
191.38
165.88
138.96
115.58
99.42
92.34
92.81
95.63
93.54
79.93
51.97
11.46
-35.07
-79.04
-112.14
-129.15
-129.46
-116.56
-96.70
-75.48
-55.62
-36.08
-14.54
8.82
29.33
38.13
27.28
-5.66
-54.14
-104.55
-141.42
-154.43
-142.46
-112.93
-78.06
-49.16
-32.78
-28.94
-32.43
-36.09
-34.01
-23.39
-4.62
19.09
43.26
62.87
72.80
69.22
51.16
22.86
-6.56
-25.87
-26.66
-7.72
23.36
52.70
66.91
59.31
33.77
2.42
-21.52
-30.69
-27.04
-18.75
-14.47
-17.26
-23.40
-25.05
-15.83
5.20
33.37
61.09
81.93
92.64
93.33
85.94
73.45
60.51
53.35
58.78
80.22
114.40
150.52
173.78
171.92
141.25
89.32
31.31
-16.17
-42.09
-45.06
-32.26
-15.55
-5.90
-10.48
-30.25
-61.27
-96.73
-129.91
-156.43
-174.46
-184.26
-186.19
-180.00
-164.69
-140.07
-107.81
-71.42
-35.57
-3.56
23.27
45.19
62.14
71.89
70.46
53.76
20.55
-26.04
-77.95
-124.62
-155.55
-162.68
-142.63
-98.35
-39.43
20.30
66.64
90.70
91.29
74.95
52.37
33.22
23.88
26.02
37.74
54.34
69.97
78.19
73.99
56.89
31.27
5.66
-12.40
-20.63
-23.80
-29.98
-44.24
-64.01
-79.18
-78.56
-56.75
-17.70
27.34
66.04
90.96
101.98
104.07
102.32
98.11
89.68
74.56
53.79
33.42
21.73
25.63
45.90
76.44
106.23
124.87
127.06
114.19
93.05
71.22
53.48
40.32
29.36
18.06
5.80
-6.00
-15.41
-21.05
-23.04
-22.46
-20.29
-17.18
-13.64
-11.83
-15.66
-29.14
-53.59
-85.50
-116.69
-137.91
-143.23
-133.62
-117.21
-104.53
-103.03
-113.15
-128.79
-142.05
-147.66
-145.88
-139.85
-131.64
-119.78
-99.96
-69.75
-31.73
5.50
31.48
38.78
27.75
6.67
-11.80
-15.91
-0.16
33.48
76.54
117.93
147.64
159.56
152.83
130.93
100.45
69.10
44.11
30.79
31.21
43.01
59.05
69.30
64.43
40.75
3.25
-35.29
-59.43
-58.71
-32.47
8.80
49.45
75.27
80.47
68.74
50.04
35.03
29.42
33.05
41.87
52.14
62.57
74.02
87.50
101.40
111.08
110.22
94.02
62.07
19.28
-24.87
-59.84
-77.70
-76.90
-63.19
-47.09
-39.08
-43.64
-57.17
-69.41
-69.83
-53.12
-22.81
11.63
39.29
52.87
50.61
34.71
9.55
-20.27
-49.66
-73.48
-87.18
-88.25
-77.94
-60.38
-41.15
-24.64
-12.49
-4.11
1.53
4.02
1.77
-6.75
-20.57
-36.91
-52.34
-65.37
-77.80
-92.66
-111.48
-130.95
-142.92
-137.27
-107.67
-55.72
8.55
70.33
116.34
139.56
140.66
125.37
100.56
71.83
43.23
18.76
2.40
-2.45
4.58
20.58
40.29
58.73
73.61
84.92
93.15
97.45
95.46
84.51
64.79
40.51
18.26
4.02
-0.47
1.69
4.46
2.72
-5.15
-17.48
-30.51
-40.53
-44.49
-40.19
-26.91
-6.19
17.32
36.59
44.53
36.84
13.67
-19.45
-54.41
-82.48
-97.45
-97.12
-83.42
-62.05
-40.87
-27.48
-27.01
-40.61
-65.56
-96.59
-127.91
-154.48
-172.15
-177.30
-167.38
-141.59
-102.18
-55.37
-9.71
26.31
47.01
51.28
42.89
29.20
18.17
15.31
21.62
33.99
46.31
53.22
52.02
43.75
32.34
22.65
18.47
21.14
29.80
42.73
58.46
76.20
94.61
111.02
120.27
115.93
93.00
51.84
-0.41
-51.66
-89.06
-104.43
-96.84
-71.61
-36.35
2.05
38.27
67.71
85.65
88.68
77.29
58.62
44.34
46.18
69.05
107.25
146.16
168.66
163.35
130.12
79.98
29.82
-5.13
-17.78
-11.76
1.12
7.32
-1.02
-22.68
-48.29
-65.88
-68.19
-56.03
-37.37
-21.43
-12.71
-8.58
-2.37
10.38
27.05
37.55
29.53
-3.57
-57.12
-116.47
-163.74
-187.36
-187.47
-174.29
-161.27
-156.62
-158.94
-159.85
-150.83
-130.00
-103.35
-80.55
-68.50
-66.79
-68.46
-65.00
-51.69
-29.43
-2.92
24.19
51.87
83.30
120.96
162.70
200.48
223.19
223.02
200.01
162.71
124.08
94.80
79.01
73.58
71.81
67.74
59.14
46.51
29.71
7.17
-23.35
-61.19
-99.99
-129.07
-138.33
-124.09
-91.11
-50.39
-13.14
14.03
31.13
41.69
49.26
54.88
56.86
53.26
43.31
28.35
10.11
-10.10
-31.37
-52.50
-70.93
-83.38
-87.02
-81.72
-69.39
-53.13
-34.61
-13.22
11.97
40.06
66.83
85.62
90.99
81.77
61.90
38.17
17.22
3.33
-1.82
1.35
11.56
25.03
35.35
35.27
19.65
-9.79
-44.42
-71.42
-81.39
-73.11
-53.43
-32.93
-18.91
-12.68
-10.34
-8.27
-6.45
-8.76
-18.76
-35.93
-54.80
-67.19
-67.41
-55.32
-36.67
-19.47
-9.55
-7.92
-10.95
-12.77
-8.64
2.40
18.25
35.04
49.63
61.11
69.93
77.27
83.06
85.93
83.71
74.26
57.67
36.14
14.20
-3.42
-13.25
-14.95
-11.68
-8.65
-10.99
-20.47
-35.03
-48.58
-54.45
-48.33
-30.91
-7.87
13.59
27.67
32.42
30.22
26.38
26.24
32.73
45.07
59.34
70.23
72.90
66.04
52.03
36.00
23.87
19.63
24.06
34.28
45.60
53.67
56.34
54.20
49.14
42.64
33.63
18.97
-5.09
-40.00
-83.02
-127.03
-161.98
-178.48
-170.74
-138.67
-88.75
-32.27
17.52
49.80
59.51
48.60
25.07
-0.70
-19.89
-27.82
-24.29
-12.87
1.03
12.10
16.75
13.94
5.71
-3.03
-7.33
-4.46
3.39
9.34
5.61
-11.59
-38.19
-63.11
-73.79
-63.41
-35.13
-0.79
24.99
32.46
21.03
-0.43
-18.53
-21.41
-4.05
29.91
69.70
101.54
114.13
102.38
70.60
30.55
-3.48
-21.32
-21.90
-12.82
-5.91
-9.77
-24.99
-43.36
-52.85
-44.24
-15.35
27.96
75.35
116.41
143.84
154.04
146.35
122.51
85.88
41.95
-3.00
-42.62
-72.22
-89.58
-94.80
-90.10
-78.87
-65.10
-52.08
-42.29
-37.00
-36.16
-38.72
-43.26
-48.17
-51.96
-53.19
-51.12
-46.00
-39.29
-33.25
-29.67
-28.74
-28.77
-27.19
-22.24
-13.90
-4.16
3.40
6.15
3.34
-3.58
-11.80
-19.04
-24.01
-27.09
-28.98
-30.19
-30.14
-28.21
-24.45
-19.97
-17.10
-18.41
-24.93
-35.58
-46.80
-54.23
-54.14
-45.09
-27.69
-4.84
19.44
41.49
59.71
74.89
89.77
107.10
127.35
148.08
163.90
168.81
158.82
133.51
96.90
55.66
16.92
-14.87
-38.10
-53.82
-63.38
-67.58
-66.67
-61.22
-52.88
-43.57
-35.22
-28.04
-21.05
-12.64
-1.98
9.35
18.86
24.11
24.19
20.23
14.80
10.72
10.37
15.81
28.12
47.06
70.00
92.36
109.34
117.70
116.61
106.80
89.32
64.17
32.22
-3.73
-38.35
-65.38
-80.72
-84.46
-81.24
-76.96
-75.67
-77.18
-78.36
-76.33
-70.19
-62.15
-54.71
-48.93
-44.08
-39.01
-34.91
-35.25
-44.21
-63.42
-90.00
-116.33
-133.59
-135.67
-122.52
-100.82
-79.77
-66.23
-60.44
-56.07
-44.13
-18.79
17.66
56.07
84.44
94.83
86.93
66.68
41.70
16.12
-10.91
-43.41
-83.19
-126.99
-166.53
-192.06
-196.64
-178.48
-140.81
-89.77
-32.80
22.37
67.65
95.81
102.72
89.69
64.58
39.77
27.94
37.09
67.73
112.84
160.96
201.00
224.89
229.61
216.19
188.89
154.06
118.00
85.97
61.00
44.47
36.29
35.96
41.96
50.19
54.13
46.38
22.62
-14.68
-55.38
-85.54
-93.59
-76.27
-40.76
-0.85
29.48
42.70
39.74
27.26
12.94
1.37
-6.71
-13.06
-19.49
-26.91
-34.88
-42.43
-48.66
-52.26
-51.78
-45.68
-33.42
-15.65
5.90
29.90
56.35
85.55
116.82
145.66
163.90
162.86
138.97
97.74
52.16
17.17
2.01
5.85
18.47
26.77
21.22
-0.41
-33.29
-69.84
-102.93
-127.81
-141.75
-143.31
-132.42
-110.91
-83.73
-58.25
-42.13
-40.35
-53.22
-75.90
-99.75
-115.18
-115.49
-99.81
-72.63
-41.91
-14.32
7.92
27.00
47.54
71.46
95.94
114.08
119.01
108.12
85.09
58.29
36.26
24.10
20.87
21.12
18.15
7.57
-10.51
-32.30
-52.90
-68.74
-78.99
-84.33
-84.74
-78.50
-63.60
-40.87
-15.80
2.86
7.20
-3.38
-20.95
-32.57
-27.79
-6.06
23.10
45.63
51.85
42.18
25.71
13.78
12.57
20.04
29.01
33.61
33.67
34.13
40.92
55.73
74.00
87.89
90.57
80.05
58.99
32.13
3.21
-26.38
-55.95
-83.77
-105.59
-116.59
-114.31
-100.51
-80.88
-62.18
-48.64
-40.69
-35.79
-30.63
-23.66
-15.99
-10.35
-8.33
-8.80
-8.83
-4.92
3.91
15.07
23.20
22.56
10.85
-9.65
-32.19
-49.25
-55.46
-50.77
-39.57
-27.96
-20.29
-16.87
-14.97
-10.45
-1.50
10.86
23.13
32.23
37.51
41.55
48.50
61.02
78.60
97.13
111.33
117.32
114.77
106.95
97.94
90.43
84.01
75.91
64.15
49.77
36.86
29.47
29.08
32.19
32.66
25.62
11.29
-4.42
-12.92
-8.29
8.22
28.63
41.54
38.74
18.88
-12.58
-47.63
-79.68
-105.60
-125.59
-140.04
-148.68
-150.58
-145.72
-136.06
-124.92
-115.83
-110.01
-105.73
-99.33
-87.89
-70.55
-48.73
-25.30
-1.89
21.48
45.36
69.48
92.08
109.53
118.28
117.01
107.34
94.34
83.80
79.07
79.78
82.02
80.19
69.92
50.64
25.07
-1.29
-22.03
-32.19
-29.68
-16.18
3.09
20.54
29.47
26.16
12.44
-5.46
-19.09
-21.60
-11.44
7.02
25.71
36.61
35.53
23.89
7.11
-8.07
-16.54
-16.72
-10.30
-1.25
5.32
4.37
-7.32
-30.15
-61.41
-94.78
-122.80
-139.39
-142.55
-135.62
-125.41
-118.47
-117.63
-121.31
-124.95
-124.20
-116.90
-103.23
-84.42
-61.49
-34.82
-5.83
22.20
44.46
57.14
60.04
57.48
56.83
64.29
81.66
104.52
124.85
135.56
134.10
123.61
110.31
99.23
91.12
82.68
70.01
52.68
35.61
26.16
29.45
44.37
62.78
73.50
68.12
45.72
13.24
-18.01
-38.38
-43.36
-34.63
-17.91
0.10
14.60
23.82
28.24
28.91
25.63
17.33
2.81
-16.81
-36.34
-48.27
-46.34
-29.68
-4.28
19.20
31.04
26.85
9.53
-13.15
-33.85
-49.20
-60.48
-70.58
-80.22
-86.58
-84.24
-69.47
-42.33
-8.08
25.27
49.81
60.82
57.41
42.50
21.24
-0.98
-19.62
-32.37
-38.90
-40.66
-40.32
-39.84
-39.95
-39.55
-36.87
-30.11
-18.82
-3.55
14.36
32.97
50.38
64.32
72.78
73.81
67.04
53.98
37.79
22.63
11.55
5.90
4.38
4.61
4.25
2.70
1.97
5.90
18.13
39.56
67.05
93.94
112.51
117.89
109.48
91.15
68.06
44.33
21.39
-0.91
-22.39
-41.14
-53.51
-56.65
-50.66
-39.84
-31.19
-31.67
-44.69
-67.75
-93.37
-111.20
-112.44
-93.49
-57.76
-14.47
24.69
49.76
56.84
47.81
28.83
6.44
-15.25
-35.02
-53.51
-71.13
-87.29
-99.94
-107.49
-109.85
-108.49
-106.33
-106.01
-108.78
-113.86
-118.52
-119.05
-111.72
-93.91
-65.10
-27.99
12.79
50.77
79.99
95.80
95.91
81.22
56.42
28.76
6.04
-5.13
-2.88
9.96
26.59
40.29
47.17
48.02
46.43
45.80
46.88
47.14
43.29
33.88
20.70
8.10
0.13
-1.51
1.72
7.16
12.70
18.42
25.81
35.92
47.99
58.99
65.98
67.52
64.79
61.11
60.69
66.30
78.33
94.90
111.83
124.64
128.92
122.28
104.51
77.90
46.67
16.22
-9.11
-26.72
-35.99
-38.68
-38.38
-39.03
-44.36
-56.38
-74.17
-93.96
-110.07
-116.72
-111.26
-94.83
-72.85
-53.18
-43.38
-47.95
-67.29
-97.46
-131.56
-162.36
-183.14
-189.13
-177.83
-149.19
-106.03
-54.37
-2.70
39.70
65.16
71.55
62.36
45.75
31.12
25.05
29.06
40.42
54.97
69.00
81.14
91.53
101.11
111.10
121.77
132.87
142.55
147.25
142.13
123.37
90.97
50.03
9.87
-20.31
-35.50
-37.55
-33.21
-30.53
-33.42
-40.45
-46.81
-47.62
-42.47
-34.68
-29.16
-28.63
-31.14
-31.61
-25.19
-10.95
7.17
22.31
28.06
21.81
5.53
-15.19
-33.76
-44.24
-43.22
-30.90
-10.55
11.61
28.90
35.42
28.71
10.44
-14.19
-37.81
-53.15
-55.61
-44.26
-21.88
5.69
31.90
50.92
59.90
59.75
53.55
44.98
35.78
25.83
14.55
2.18
-9.24
-17.04
-18.51
-12.31
1.70
21.61
43.61
62.35
72.28
70.93
60.32
46.98
37.64
35.29
36.26
31.56
12.85
-21.60
-63.50
-97.84
-110.24
-94.37
-55.09
-6.20
35.68
58.34
57.49
37.21
6.26
-25.36
-49.39
-61.22
-59.45
-45.72
-23.21
4.13
32.76
59.44
81.86
99.07
110.77
117.64
120.14
118.21
110.29
94.25
69.01
35.57
-1.68
-37.04
-65.38
-84.48
-96.09
-103.97
-111.32
-118.10
-121.71
-118.82
-109.14
-96.01
-85.16
-81.12
-84.04
-89.90
-92.34
-87.01
-73.50
-54.69
-34.79
-16.90
-1.98
11.07
23.42
35.82
47.17
54.72
55.14
45.77
27.05
2.63
-20.68
-35.83
-38.94
-31.18
-18.60
-8.43
-5.80
-10.94
-20.84
-31.00
-38.23
-41.34
-39.89
-33.98
-24.34
-13.23
-4.12
-0.63
-4.89
-15.98
-30.01
-41.75
-46.44
-40.96
-25.15
-0.87
28.11
56.31
78.23
89.47
89.11
79.62
65.77
51.96
39.57
26.74
10.31
-10.91
-34.65
-54.98
-65.34
-61.79
-44.93
-19.91
6.74
30.72
51.98
73.29
96.89
121.70
142.90
153.92
150.60
133.10
105.34
73.01
40.87
12.26
-9.87
-22.93
-24.66
-14.64
4.20
26.03
43.67
51.78
48.29
34.61
14.58
-7.11
-25.86
-38.30
-42.33
-37.81
-26.12
-9.89
7.41
22.05
30.27
29.19
17.59
-2.31
-25.18
-43.84
-52.45
-49.15
-37.07
-22.37
-10.85
-5.33
-4.28
-4.39
-3.17
-0.64
0.64
-1.83
-9.37
-21.30
-35.88
-50.89
-64.05
-73.39
-76.40
-71.13
-56.62
-34.52
-8.82
15.59
34.84
47.87
55.41
59.00
58.69
53.83
44.21
31.56
19.29
9.32
0.29
-12.65
-34.23
-64.79
-97.78
-121.52
-125.24
-105.02
-66.64
-22.63
14.28
37.26
46.84
48.60
48.79
50.30
52.40
51.52
44.47
30.18
10.54
-10.28
-27.79
-38.72
-42.98
-43.77
-45.49
-50.92
-58.37
-62.65
-57.11
-38.41
-8.16
26.86
58.55
81.22
93.49
98.30
99.36
99.18
97.93
94.45
87.71
77.99
65.94
51.26
32.29
6.32
-27.40
-66.10
-103.02
-129.66
-140.12
-134.27
-118.60
-102.48
-93.01
-91.38
-92.90
-90.87
-80.85
-63.54
-43.42
-26.11
-14.71
-8.78
-5.58
-2.81
-0.42
0.16
-2.86
-9.51
-18.24
-27.18
-35.91
-45.95
-59.21
-75.67
-91.09
-97.39
-86.09
-53.44
-3.84
51.24
97.35
123.96
128.71
117.54
100.58
87.29
82.95
87.93
98.91
110.43
116.53
112.35
95.91
70.68
45.27
30.19
32.27
50.01
72.82
85.33
74.85
37.34
-20.31
-84.05
-137.80
-169.70
-175.12
-156.96
-123.58
-85.17
-51.26
-27.66
-15.83
-13.18
-15.68
-20.05
-25.05
-31.55
-40.69
-52.70
-66.01
-78.19
-87.12
-91.52
-91.23
-86.77
-79.05
-68.70
-56.76
-44.15
-31.46
-18.90
-5.81
8.62
25.34
44.09
64.11
83.40
99.39
109.40
111.29
105.37
95.24
87.67
90.03
107.13
137.82
173.72
202.38
212.09
197.65
163.02
119.63
81.02
56.45
47.82
50.47
57.69
64.22
68.18
69.34
67.25
60.42
47.12
27.91
6.27
-12.53
-24.24
-27.31
-22.76
-12.95
0.17
15.17
29.93
40.76
42.84
32.25
8.06
-25.84
-62.55
-93.90
-112.95
-116.22
-104.57
-83.90
-63.59
-53.87
-61.17
-85.04
-117.30
-145.97
-161.93
-163.54
-157.97
-156.13
-165.78
-185.56
-204.89
-209.81
-190.44
-147.23
-89.81
-32.33
13.45
42.58
56.63
60.88
60.45
58.51
55.73
51.59
45.28
36.40
26.69
19.64
20.13
31.32
52.34
77.58
98.46
108.07
105.16
95.25
86.97
87.08
95.49
105.73
109.15
100.12
79.38
51.73
22.65
-6.16
-35.66
-66.52
-95.53
-114.69
-115.28
-92.45
-49.45
3.68
54.98
96.05
124.83
142.99
152.58
151.99
138.04
109.85
72.50
36.85
14.11
9.40
18.38
29.76
31.49
17.31
-11.51
-48.95
-89.02
-128.90
-167.58
-203.20
-229.72
-238.55
-222.52
-181.33
-123.29
-62.35
-11.93
20.77
35.87
38.24
33.40
24.64
13.56
1.58
-7.28
-6.90
8.60
40.68
84.09
127.37
156.63
161.53
139.73
98.07
49.51
7.26
-20.26
-32.03
-33.03
-29.82
-26.23
-22.31
-16.53
-9.47
-5.58
-10.70
-27.26
-51.06
-72.27
-80.91
-73.08
-53.46
-31.39
-14.87
-4.54
5.59
22.69
48.46
76.11
93.14
88.51
59.99
15.90
-28.37
-57.39
-62.66
-44.93
-13.24
20.19
44.57
54.69
51.22
39.66
26.72
16.84
11.02
6.83
1.33
-6.90
-16.42
-24.32
-28.24
-27.78
-25.24
-23.47
-24.14
-25.98
-25.48
-18.16
-1.53
23.20
51.23
75.05
87.81
86.39
72.59
52.85
34.79
24.22
22.70
27.75
33.93
35.54
28.09
9.91
-18.38
-54.12
-92.99
-130.41
-162.01
-184.69
-197.12
-199.80
-194.42
-182.81
-166.67
-148.04
-129.30
-112.93
-100.38
-90.36
-78.14
-57.96
-25.94
16.61
62.75
102.88
129.25
140.55
141.89
141.17
143.28
146.59
144.55
130.71
104.96
75.60
55.60
55.37
76.22
108.34
134.66
139.15
114.36
65.39
6.82
-44.24
-76.60
-89.78
-91.84
-93.57
-100.29
-109.38
-112.15
-100.20
-71.73
-33.30
3.79
30.48
44.13
49.80
55.33
66.23
81.98
96.77
103.56
97.77
80.26
56.20
33.09
17.49
13.01
19.48
33.64
50.70
65.76
75.79
79.26
75.85
65.67
48.68
25.95
-0.62
-27.59
-51.48
-69.69
-81.03
-85.71
-84.00
-76.10
-61.00
-37.88
-6.85
29.77
67.29
99.32
119.72
124.51
112.80
87.42
53.20
15.81
-19.34
-47.65
-65.89
-72.85
-69.42
-58.99
-46.73
-38.11
-37.34
-46.20
-63.52
-85.20
-105.65
-119.40
-122.82
-115.63
-100.46
-82.05
-64.21
-48.46
-33.25
-15.91
4.16
24.77
41.23
49.41
48.03
38.65
24.50
8.14
-9.36
-27.83
-46.28
-62.38
-72.43
-73.47
-64.60
-47.49
-26.10
-3.85
17.79
39.10
60.47
80.82
97.10
105.27
104.01
95.52
85.59
79.50
78.50
78.55
72.55
56.09
30.19
2.52
-17.57
-24.31
-18.26
-6.06
4.69
8.94
6.84
1.67
-3.04
-6.57
-11.21
-20.90
-38.77
-64.47
-95.00
-125.65
-151.70
-169.55
-177.34
-174.35
-161.00
-139.44
-112.97
-86.40
-63.94
-48.74
-41.72
-41.30
-44.92
-48.67
-48.75
-41.76
-25.64
-0.96
29.48
60.99
89.38
112.17
128.91
140.01
145.06
142.59
131.47
112.39
88.07
62.72
39.25
17.76
-3.75
-26.74
-50.27
-70.84
-84.31
-89.06
-86.25
-78.72
-68.30
-54.22
-34.27
-7.18
24.67
55.76
79.77
93.29
97.83
98.16
99.57
104.44
111.33
117.57
122.10
127.10
137.09
154.80
177.84
197.74
202.70
183.36
138.23
75.16
8.16
-49.22
-89.38
-112.74
-124.64
-131.11
-135.37
-137.25
-136.45
-133.81
-131.76
-131.84
-132.23
-128.12
-114.71
-90.87
-60.85
-32.41
-12.81
-4.67
-5.67
-10.57
-14.05
-13.32
-6.91
6.08
26.82
55.65
90.75
126.81
155.92
170.33
165.56
142.31
105.85
64.76
27.61
0.73
-13.57
-16.41
-11.85
-4.37
2.70
7.99
12.71
17.98
23.24
24.95
17.58
-2.97
-36.33
-76.17
-113.08
-138.25
-147.94
-144.69
-135.02
-126.05
-121.79
-122.31
-124.72
-125.94
-124.36
-119.73
-112.36
-102.34
-89.93
-75.50
-60.71
-47.46
-37.86
-32.43
-30.70
-30.96
-30.64
-27.28
-18.79
-4.80
13.36
32.54
49.17
60.59
66.65
70.42
76.15
87.90
106.46
129.30
150.97
164.87
165.53
150.45
122.16
87.55
56.57
38.32
37.72
52.49
74.26
92.54
99.81
95.47
84.64
75.17
72.24
75.79
81.85
85.85
85.52
81.52
75.80
69.20
61.07
50.38
37.11
22.89
9.30
-4.34
-21.48
-46.38
-80.74
-121.90
-163.20
-197.41
-219.87
-230.41
-232.06
-228.35
-221.25
-210.67
-195.29
-174.18
-147.30
-116.08
-83.06
-52.18
-27.11
-10.32
-0.80
6.88
19.99
44.21
79.20
118.33
151.38
169.74
170.55
157.22
137.17
116.88
99.50
84.13
68.31
49.74
28.15
5.36
-16.13
-33.70
-46.48
-54.73
-60.14
-65.04
-70.77
-76.66
-79.93
-77.29
-66.19
-47.23
-23.25
2.04
25.34
44.88
60.00
70.42
75.33
74.45
68.02
57.30
43.83
28.32
10.57
-10.69
-36.38
-65.68
-94.82
-118.04
-129.17
-123.36
-99.57
-61.05
-15.51
26.78
56.45
68.12
62.67
47.24
32.30
26.72
34.48
52.53
73.14
88.22
93.49
89.47
80.64
71.94
65.59
60.78
55.15
47.26
38.34
31.50
30.15
35.24
43.91
50.14
47.45
32.29
6.06
-24.78
-51.33
-66.45
-68.67
-63.36
-59.59
-64.35
-78.01
-94.06
-102.78
-97.59
-78.38
-51.36
-25.61
-8.68
-4.17
-12.01
-29.70
-52.76
-75.05
-89.07
-87.21
-65.55
-26.40
20.70
62.40
86.67
87.66
67.19
32.88
-4.91
-36.52
-54.25
-53.51
-33.30
3.31
48.94
93.41
126.25
140.86
136.86
119.91
98.68
79.77
64.63
48.39
23.34
-15.48
-66.18
-119.08
-159.67
-175.04
-159.56
-117.53
-61.74
-7.58
32.88
54.95
60.50
55.05
43.70
28.71
10.50
-10.75
-33.04
-52.61
-65.70
-70.68
-69.50
-66.64
-66.76
-72.13
-81.30
-90.28
-94.05
-89.80
-77.80
-61.59
-46.39
-35.76
-30.03
-25.49
-16.29
2.12
30.44
65.40
101.39
133.62
159.71
179.30
192.15
197.32
193.88
182.70
167.65
154.48
146.77
142.30
132.35
105.93
56.39
-12.78
-86.80
-145.25
-170.26
-155.39
-107.87
-45.50
11.04
46.45
55.06
40.96
13.87
-16.55
-44.13
-66.80
-84.18
-95.07
-96.21
-83.91
-57.01
-18.83
22.98
58.40
78.30
77.57
56.25
19.88
-22.37
-59.70
-83.29
-89.25
-80.00
-64.00
-51.21
-49.33
-59.39
-76.64
-93.22
-102.34
-102.08
-94.69
-84.58
-75.47
-68.21
-61.36
-52.63
-40.59
-25.00
-6.85
13.36
35.73
59.66
82.87
100.88
108.78
103.77
87.95
67.55
50.49
41.51
39.81
39.41
33.25
18.93
0.14
-14.60
-18.37
-9.85
5.69
19.72
26.92
27.66
27.52
32.78
45.69
62.87
78.29
86.90
88.17
86.47
87.16
93.49
103.94
112.85
114.11
103.43
80.30
46.53
4.72
-42.76
-93.09
-141.83
-181.51
-203.45
-201.55
-175.57
-133.15
-86.50
-47.19
-21.15
-5.90
5.97
21.90
43.43
65.45
79.46
79.21
64.65
42.69
23.13
13.30
14.95
23.84
32.53
34.96
28.99
17.61
5.95
-1.08
-1.57
2.67
7.97
11.34
11.76
11.12
12.70
18.84
29.35
40.28
46.23
43.35
31.71
15.99
2.52
-4.04
-4.08
-2.37
-5.55
-18.50
-41.02
-67.78
-90.44
-101.95
-99.95
-86.77
-68.26
-49.83
-34.29
-21.01
-7.95
6.18
19.74
28.30
27.06
14.56
-5.72
-25.69
-37.09
-35.95
-25.16
-13.33
-9.99
-20.51
-43.31
-71.18
-95.25
-109.95
-115.48
-116.43
-117.44
-120.13
-122.03
-119.09
-108.73
-91.31
-69.49
-45.00
-17.62
14.39
51.43
89.09
118.51
130.25
119.91
92.03
59.37
37.18
36.31
58.64
97.23
140.54
177.43
200.45
206.88
197.40
174.99
143.68
108.24
73.77
44.81
23.44
9.62
1.24
-4.31
-8.27
-10.69
-10.51
-7.43
-2.27
2.69
4.37
0.60
-9.71
-25.85
-45.93
-67.25
-87.03
-101.89
-108.71
-104.30
-87.97
-62.58
-35.17
-14.83
-9.11
-19.57
-41.05
-63.83
-77.94
-78.22
-65.65
-46.14
-27.28
-14.47
-9.23
-10.10
-14.04
-18.70
-22.16
-23.13
-20.43
-13.05
-1.88
10.71
20.71
23.99
18.02
2.97
-18.22
-40.48
-58.33
-67.57
-67.26
-59.50
-48.64
-39.05
-34.03
-35.19
-42.17
-53.51
-66.93
-79.65
-88.35
-89.89
-81.65
-63.32
-37.71
-11.27
8.04
13.56
3.14
-19.15
-44.37
-60.95
-59.53
-35.43
9.07
65.37
121.21
165.33
191.21
198.61
193.36
183.85
176.58
174.16
174.22
172.16
164.01
148.21
126.38
102.37
80.85
66.22
61.82
68.20
82.45
97.30
102.83
89.56
53.22
-2.05
-64.71
-119.51
-154.62
-165.93
-158.27
-142.06
-127.96
-121.88
-122.99
-125.52
-122.95
-112.45
-95.66
-77.03
-59.59
-42.27
-20.33
10.79
50.68
92.16
123.56
133.83
118.67
83.30
40.54
5.53
-10.95
-7.47
8.13
22.81
23.93
5.89
-28.05
-67.21
-98.31
-112.03
-106.13
-85.37
-57.27
-28.51
-1.61
23.86
48.23
69.24
81.88
80.86
64.24
35.50
2.08
-27.49
-47.62
-57.47
-59.64
-58.52
-57.22
-56.78
-57.19
-57.84
-57.87
-55.25
-46.73
-27.74
4.51
48.73
98.05
141.65
169.04
174.26
158.90
130.63
100.10
76.21
63.07
59.62
60.92
60.74
54.23
39.30
16.27
-11.90
-41.57
-68.71
-89.52
-100.83
-100.55
-88.60
-67.91
-44.14
-24.37
-13.99
-14.06
-20.47
-26.01
-23.91
-11.17
10.07
33.92
53.33
63.04
60.44
45.91
21.91
-7.86
-38.31
-63.95
-79.65
-82.17
-72.41
-55.06
-37.09
-24.22
-18.16
-16.32
-14.49
-10.58
-6.91
-9.24
-22.75
-47.88
-78.20
-103.05
-112.69
-104.15
-82.98
-60.19
-45.55
-41.96
-44.81
-45.29
-37.31
-21.09
-3.14
8.08
8.46
1.08
-5.20
-1.90
13.85
37.40
58.84
69.38
65.22
49.49
28.60
8.90
-6.26
-16.13
-21.01
-20.82
-14.82
-3.39
11.54
25.84
35.68
39.44
38.87
37.73
39.58
45.86
54.84
63.24
68.46
70.24
70.77
73.18
79.56
89.20
99.76
107.55
109.77
105.22
93.59
75.92
53.56
28.76
4.96
-13.77
-24.27
-25.55
-19.39
-9.72
-0.78
4.09
3.50
-2.23
-11.84
-23.27
-34.58
-44.39
-52.03
-57.37
-60.80
-62.90
-63.31
-60.32
-52.68
-40.73
-27.27
-17.31
-15.46
-23.80
-40.89
-62.81
-85.73
-107.70
-127.88
-145.27
-155.64
-152.80
-131.05
-90.13
-37.49
13.64
49.60
63.34
57.00
40.93
27.52
25.78
37.71
58.50
80.07
95.46
102.40
103.65
105.12
112.90
130.38
156.57
186.57
213.54
230.05
230.57
211.52
172.00
114.49
44.76
-27.61
-91.54
-136.91
-159.21
-160.89
-150.52
-137.99
-128.99
-122.62
-112.81
-94.01
-65.93
-35.25
-12.10
-4.55
-14.70
-38.24
-67.83
-96.12
-117.70
-128.08
-123.11
-99.80
-59.30
-9.49
36.09
62.91
62.12
34.52
-9.26
-53.37
-83.63
-91.96
-78.30
-48.96
-13.94
16.51
34.74
37.32
25.94
6.17
-14.42
-29.97
-38.66
-42.79
-47.03
-54.49
-64.83
-74.19
-77.95
-73.46
-61.53
-45.52
-27.87
-8.48
15.58
46.63
82.50
115.83
136.65
137.53
118.42
87.97
59.57
45.68
51.69
73.33
98.99
115.51
115.42
100.64
81.48
69.87
72.85
88.39
106.89
117.29
112.41
92.14
62.31
31.01
5.48
-9.10
-9.50
4.56
30.22
59.86
82.62
88.45
72.10
35.84
-11.21
-57.09
-92.00
-110.49
-112.45
-101.41
-83.02
-63.43
-48.03
-40.19
-40.36
-46.37
-54.75
-62.59
-69.10
-75.37
-83.43
-94.40
-107.43
-119.69
-127.27
-127.22
-119.35
-106.58
-92.94
-81.39
-72.09
-62.95
-51.97
-39.08
-26.32
-16.39
-9.24
-0.61
15.98
44.98
84.62
125.41
153.85
158.67
136.82
95.58
49.20
12.99
-3.58
0.46
18.77
41.90
62.09
75.97
83.75
87.09
85.94
78.01
60.36
32.05
-3.88
-39.61
-65.96
-75.62
-67.23
-46.24
-22.33
-5.49
-1.32
-9.08
-22.41
-33.89
-38.15
-34.14
-24.29
-12.31
-0.93
8.27
13.94
14.55
8.35
-4.77
-22.35
-39.27
-49.52
-49.03
-37.59
-19.07
0.81
16.96
27.55
34.22
40.11
48.16
58.17
67.96
74.11
74.75
70.99
66.28
64.89
68.87
78.17
90.47
103.49
115.96
126.98
134.82
136.78
129.56
112.04
86.81
59.35
36.24
20.83
11.98
4.62
-7.40
-27.13
-54.17
-84.93
-115.90
-144.60
-170.19
-192.17
-209.23
-219.91
-223.17
-219.67
-211.66
-201.87
-192.60
-184.42
-177.46
-171.19
-165.24
-158.05
-146.34
-125.38
-91.20
-42.97
15.25
75.50
128.81
167.71
188.66
192.66
184.12
169.16
152.95
139.13
128.46
119.97
111.24
100.17
85.80
68.61
50.39
32.71
16.42
1.13
-14.26
-29.79
-44.16
-54.53
-58.08
-53.05
-40.46
-23.59
-7.18
3.87
6.78
1.44
-9.70
-22.83
-33.56
-38.51
-36.11
-26.07
-9.69
11.62
35.77
60.82
84.00
102.10
111.57
109.53
95.96
73.72
48.50
25.70
8.58
-2.82
-11.34
-19.83
-28.85
-35.85
-36.66
-27.35
-6.89
22.37
56.08
88.82
114.95
129.23
127.30
106.56
68.44
19.25
-31.19
-71.99
-95.79
-100.40
-89.43
-69.65
-48.60
-32.16
-23.32
-22.73
-29.13
-39.69
-50.66
-58.81
-62.59
-62.23
-59.36
-55.63
-51.97
-48.38
-45.29
-43.55
-43.89
-45.74
-46.82
-43.59
-34.23
-19.97
-5.23
4.71
6.61
1.13
-7.61
-14.80
-17.67
-16.48
-13.34
-10.13
-7.16
-3.32
2.47
10.19
17.86
23.10
24.08
20.39
12.83
3.58
-4.90
-10.20
-10.71
-5.91
3.77
17.18
33.22
51.17
69.97
87.89
101.70
108.27
105.85
95.65
80.84
64.88
49.54
34.45
18.85
2.70
-11.98
-23.35
-32.03
-42.35
-59.99
-88.16
-124.62
-161.37
-188.51
-198.13
-188.12
-161.85
-125.41
-84.95
-44.86
-7.80
25.09
53.08
75.83
93.39
106.21
115.07
120.04
120.19
113.86
99.68
78.49
54.20
32.71
19.07
14.73
16.01
16.18
9.41
-5.33
-23.18
-36.18
-38.34
-29.47
-14.74
-1.54
5.54
6.95
6.33
7.35
10.17
11.83
9.13
2.12
-5.42
-8.64
-5.22
1.56
4.62
-2.92
-22.52
-47.73
-67.48
-71.56
-56.85
-28.93
1.04
21.76
27.49
19.94
6.39
-4.68
-7.54
-1.16
11.59
25.86
37.40
43.45
42.97
36.72
26.36
15.16
6.20
1.58
1.24
2.60
2.34
-1.89
-9.68
-17.88
-22.11
-19.15
-9.55
2.92
12.58
15.23
9.69
-1.93
-15.94
-29.30
-40.39
-49.52
-57.53
-65.11
-71.95
-77.00
-78.78
-76.16
-68.12
-54.14
-34.90
-11.44
13.77
37.60
56.33
67.03
68.63
62.50
52.44
42.97
36.70
33.60
31.13
26.65
19.24
11.14
6.32
8.50
19.00
36.60
57.99
79.51
98.23
110.79
113.48
102.08
73.77
29.86
-22.82
-73.35
-110.53
-126.52
-120.45
-97.06
-63.83
-28.15
4.80
31.93
50.45
57.29
49.86
27.76
-5.63
-43.13
-76.11
-97.27
-103.82
-97.94
-85.46
-72.98
-65.03
-62.12
-61.62
-59.42
-52.27
-39.93
-24.99
-11.39
-2.47
0.85
0.27
-1.17
-1.39
0.60
4.61
9.65
14.95
19.22
20.17
15.39
3.24
-15.48
-36.79
-54.55
-62.79
-57.54
-38.91
-10.49
22.17
53.83
80.78
101.75
117.13
128.12
135.43
138.85
137.43
130.93
120.43
108.47
97.24
87.00
75.31
59.12
36.68
9.95
-15.36
-33.21
-40.02
-36.77
-28.48
-20.50
-15.89
-13.94
-11.79
-6.93
0.06
6.19
7.62
1.70
-11.02
-26.93
-40.55
-47.28
-44.64
-33.58
-17.29
0.25
14.99
24.15
25.92
19.66
5.33
-15.45
-39.66
-63.11
-81.29
-90.89
-90.40
-80.69
-63.95
-43.00
-20.66
0.55
18.46
31.08
36.83
34.67
24.34
7.05
-13.69
-32.30
-41.88
-37.74
-19.84
5.55
28.36
39.31
34.90
19.66
2.86
-7.05
-7.97
-4.24
-3.01
-8.13
-16.63
-21.33
-16.34
-2.06
14.15
22.10
15.03
-6.35
-34.36
-58.91
-72.07
-71.43
-59.87
-43.06
-26.43
-12.79
-2.01
7.15
16.09
24.75
31.53
34.26
31.81
25.77
20.29
20.00
27.48
42.43
61.40
80.45
96.62
108.18
114.58
115.25
109.33
97.13
80.90
64.25
50.84
42.78
38.98
36.21
30.94
21.25
7.88
-6.55
-19.68
-30.84
-40.79
-51.47
-63.80
-76.60
-86.42
-89.20
-83.15
-70.40
-56.85
-49.70
-53.58
-67.66
-85.65
-98.81
-100.67
-90.49
-73.24
-56.27
-45.12
-40.38
-38.19
-33.39
-23.06
-7.57
10.26
27.75
43.49
56.19
63.58
61.98
48.46
23.96
-5.27
-29.85
-41.44
-37.32
-21.79
-3.29
9.79
13.57
9.01
-0.64
-12.65
-26.74
-43.08
-60.16
-73.25
-75.82
-64.32
-40.42
-11.99
11.31
22.22
20.04
10.52
2.58
4.14
17.93
41.77
69.85
96.11
116.07
126.86
126.94
115.26
91.70
58.14
20.18
-13.67
-33.54
-32.27
-9.04
29.25
69.06
95.71
98.69
76.91
38.66
-2.04
-31.66
-43.99
-41.55
-34.42
-33.42
-44.68
-66.11
-88.75
-101.93
-98.55
-79.25
-50.62
-22.10
-1.16
9.91
13.70
15.46
19.70
28.24
39.21
49.15
53.88
50.96
40.40
24.58
7.51
-6.87
-15.43
-17.56
-14.00
-6.80
1.64
8.79
11.68
8.23
-2.65
-19.48
-38.28
-54.20
-63.36
-64.01
-57.35
-46.52
-34.61
-24.36
-17.61
-15.83
-20.53
-32.52
-50.94
-72.57
-92.04
-103.31
-102.77
-90.48
-70.50
-49.38
-33.12
-24.69
-23.12
-24.93
-26.21
-24.45
-19.04
-10.56
-0.31
10.63
21.40
31.02
39.07
45.20
49.74
53.99
59.59
68.89
84.31
106.98
135.58
165.39
188.48
196.52
184.32
153.09
111.26
71.61
45.54
37.68
44.18
54.57
57.48
46.24
22.05
-7.03
-31.39
-44.59
-47.11
-44.63
-44.55
-51.12
-62.96
-74.40
-78.22
-70.35
-51.03
-24.66
2.62
25.29
39.70
44.92
41.73
32.39
19.73
6.36
-6.55
-19.49
-34.31
-52.81
-75.03
-98.67
-119.11
-130.68
-128.43
-109.57
-74.27
-26.01
28.55
81.20
124.05
152.43
165.92
168.48
164.98
157.72
145.02
122.48
87.27
41.67
-6.46
-47.61
-75.60
-90.83
-99.38
-108.21
-120.22
-132.70
-139.07
-133.90
-116.48
-91.57
-66.46
-47.00
-34.19
-23.73
-9.48
13.00
42.98
75.19
102.22
118.43
122.67
117.14
105.48
90.05
70.88
47.12
19.40
-8.85
-32.52
-46.75
-49.35
-41.75
-28.35
-13.98
-1.68
8.21
17.55
27.81
38.18
44.71
42.27
27.42
1.59
-28.60
-54.08
-67.42
-67.40
-59.15
-51.83
-53.38
-66.54
-86.77
-103.51
-105.05
-82.85
-36.39
25.48
86.58
129.07
141.18
122.34
83.65
42.83
16.83
14.02
32.08
60.48
86.01
98.66
94.52
75.62
47.03
14.68
-16.21
-41.60
-58.11
-63.66
-57.99
-43.52
-25.11
-9.27
-2.04
-6.90
-23.77
-48.59
-74.96
-95.42
-103.73
-96.58
-74.99
-44.71
-14.46
6.53
11.86
0.90
-20.15
-40.88
-50.81
-44.29
-22.82
6.23
33.01
49.85
52.92
41.90
18.63
-14.57
-53.97
-93.31
-123.36
-134.13
-118.77
-77.95
-21.08
37.25
83.07
109.07
115.26
106.20
86.24
56.99
18.66
-25.99
-67.67
-92.06
-85.46
-42.86
27.19
103.99
162.68
184.54
163.93
109.21
37.54
-32.26
-85.38
-113.90
-116.92
-99.51
-71.20
-43.33
-25.27
-21.65
-30.67
-45.81
-59.27
-65.92
-65.11
-58.99
-50.10
-39.00
-24.38
-5.20
17.29
38.87
55.27
65.01
70.20
75.14
82.52
90.96
95.84
92.04
77.85
56.99
37.26
26.41
28.22
40.69
57.40
70.96
75.60
68.25
48.74
18.78
-18.01
-56.33
-90.16
-114.99
-129.34
-134.54
-133.39
-128.39
-120.33
-109.25
-95.29
-80.32
-67.63
-59.48
-55.84
-53.42
-47.46
-34.44
-13.81
11.27
35.70
54.82
65.84
68.48
63.59
52.77
37.33
18.39
-1.98
-20.53
-33.30
-36.81
-30.09
-15.74
1.65
17.24
28.05
33.76
35.94
36.02
34.94
32.80
30.01
27.76
26.43
25.70
24.41
21.77
18.82
18.12
22.74
33.70
49.04
64.67
76.80
84.08
87.98
91.59
97.06
104.08
110.19
111.92
106.34
91.62
68.38
39.69
11.51
-9.44
-18.22
-14.97
-5.92
-0.59
-6.36
-24.09
-47.06
-63.94
-66.20
-52.99
-31.88
-14.43
-8.97
-16.02
-28.33
-36.25
-33.82
-23.19
-12.66
-11.77
-25.26
-50.24
-78.39
-101.43
-115.49
-122.37
-126.89
-132.97
-140.97
-148.04
-149.97
-144.24
-130.02
-107.61
-78.02
-43.20
-7.21
23.06
39.17
35.26
11.38
-24.65
-59.18
-78.41
-74.46
-49.27
-13.85
17.14
33.14
32.51
23.05
16.83
22.50
40.31
62.09
76.71
77.37
65.50
49.28
37.55
34.45
37.05
38.80
35.09
27.04
20.98
24.31
40.91
67.93
97.51
120.24
129.13
122.19
101.92
73.04
40.18
6.98
-24.01
-50.36
-68.81
-76.07
-70.02
-51.90
-26.03
1.19
24.28
40.46
50.24
56.77
63.27
71.68
80.98
88.36
90.65
85.40
71.92
51.00
24.44
-5.43
-34.42
-57.22
-67.55
-60.11
-34.43
4.10
43.79
70.53
73.06
48.28
2.81
-49.96
-95.08
-123.12
-132.30
-128.27
-119.13
-110.88
-104.64
-96.95
-83.44
-61.71
-33.91
-5.58
16.30
26.30
22.16
5.16
-21.21
-52.68
-85.29
-115.88
-141.00
-157.12
-160.78
-149.30
-122.82
-84.46
-40.72
1.15
35.29
58.95
72.83
79.48
82.68
85.28
89.52
97.48
110.94
131.11
156.91
185.01
209.82
225.50
227.62
214.78
188.42
152.33
111.33
69.86
31.32
-2.37
-29.96
-50.61
-63.31
-67.75
-66.27
-63.65
-66.58
-79.96
-104.56
-135.71
-164.23
-180.52
-178.09
-156.93
-122.12
-81.58
-43.02
-11.42
11.22
25.10
30.95
30.12
24.11
14.90
4.28
-6.78
-18.02
-29.40
-38.92
-42.39
-34.17
-10.66
26.49
69.45
106.34
126.44
124.70
104.15
73.87
44.68
24.42
15.26
14.61
17.72
21.22
23.72
25.80
28.77
33.29
39.50
47.09
54.92
60.67
61.29
53.61
37.11
15.58
-3.86
-13.44
-9.30
5.86
24.09
36.05
35.93
23.42
3.62
-17.18
-34.32
-45.80
-51.81
-53.24
-51.43
-49.15
-50.18
-57.75
-72.49
-90.71
-106.27
-114.34
-114.50
-111.24
-110.58
-115.58
-123.82
-128.11
-120.54
-97.25
-61.26
-21.25
12.31
31.63
34.51
24.65
9.96
-0.95
-2.09
7.23
23.36
39.65
50.05
51.93
45.97
34.95
22.09
9.78
-0.11
-5.24
-3.23
6.89
23.37
41.33
55.16
61.49
61.30
58.94
59.35
64.64
72.93
80.32
83.32
80.71
73.50
63.77
52.91
41.40
29.47
18.25
9.93
6.16
7.50
12.63
18.55
22.38
21.98
16.95
8.18
-2.25
-11.70
-17.51
-17.66
-11.87
-2.64
4.47
3.43
-8.99
-30.09
-51.25
-61.42
-53.39
-29.24
0.11
20.66
23.17
8.55
-13.57
-31.13
-38.25
-38.41
-41.44
-55.34
-79.94
-105.95
-120.00
-113.11
-85.84
-48.18
-13.47
9.01
17.65
17.40
15.14
15.69
19.86
26.14
32.96
40.09
48.23
56.89
63.21
62.27
49.69
24.14
-10.72
-47.27
-77.22
-93.97
-95.07
-81.03
-54.64
-19.43
19.42
55.20
79.49
83.91
63.80
20.73
-35.91
-91.77
-132.85
-150.39
-143.70
-118.84
-85.04
-50.03
-17.60
12.84
43.43
75.30
106.49
132.83
150.60
158.40
158.25
153.57
146.77
137.63
123.56
102.93
76.89
50.87
32.37
26.99
34.44
47.63
55.21
46.50
17.27
-28.34
-79.34
-122.48
-147.35
-149.01
-128.23
-89.33
-38.42
17.19
68.13
104.57
118.79
109.03
81.30
46.84
17.14
-2.30
-13.98
-25.84
-44.86
-71.49
-99.02
-117.30
-119.86
-107.63
-87.81
-68.89
-55.09
-44.63
-32.09
-13.37
10.32
32.40
44.56
42.04
26.73
6.26
-10.95
-21.31
-28.45
-40.32
-63.31
-96.44
-129.60
-147.36
-135.94
-90.33
-17.68
65.12
137.55
183.11
194.51
175.50
138.57
100.08
74.55
69.34
82.85
105.55
125.32
133.38
128.25
115.19
101.93
93.09
86.65
75.84
54.18
20.44
-19.10
-54.05
-75.72
-82.17
-79.10
-76.81
-85.05
-108.05
-143.15
-182.36
-216.70
-239.69
-249.66
-249.03
-242.20
-232.69
-220.96
-205.84
-185.36
-159.10
-128.74
-97.83
-70.44
-49.54
-36.58
-31.11
-31.25
-33.78
-35.02
-31.04
-18.60
3.48
34.34
70.55
107.40
139.89
164.96
182.11
193.23
201.41
208.87
215.85
219.90
217.40
206.18
187.03
163.95
141.95
124.95
112.77
101.49
85.71
61.32
28.01
-10.53
-47.71
-77.76
-97.38
-107.49
-111.54
-112.86
-112.06
-105.75
-88.92
-58.11
-15.54
30.86
70.46
95.23
103.80
101.44
96.56
94.19
92.80
84.63
60.60
17.00
-41.33
-101.98
-150.93
-177.84
-180.63
-165.12
-141.64
-120.54
-107.98
-104.61
-106.08
-105.84
-98.28
-81.15
-55.77
-25.40
6.42
36.98
63.84
83.90
93.16
88.31
70.50
46.63
29.02
29.77
54.80
99.19
148.46
184.53
193.68
172.36
127.63
73.08
22.48
-14.57
-34.78
-40.18
-35.75
-28.17
-24.17
-29.65
-48.54
-80.62
-121.02
-160.73
-189.41
-198.94
-185.89
-152.08
-103.97
-51.04
-3.21
30.88
46.72
44.65
29.60
9.09
-9.02
-18.19
-14.45
3.72
33.77
69.12
99.58
114.48
107.33
79.62
41.55
7.69
-9.03
-3.80
19.07
49.94
79.19
101.68
116.33
123.93
123.96
114.29
92.89
61.46
27.34
1.49
-5.20
12.10
49.99
97.34
139.68
164.74
166.18
145.25
107.77
61.62
12.71
-34.89
-78.97
-116.94
-144.99
-159.47
-158.47
-144.38
-123.40
-104.35
-95.16
-99.76
-116.85
-140.20
-161.43
-172.60
-169.71
-152.65
-124.67
-90.44
-54.80
-22.58
2.12
15.33
15.24
3.41
-14.50
-29.50
-33.27
-21.33
4.14
35.39
62.38
78.04
80.67
74.26
66.16
62.33
65.10
72.36
79.05
79.32
69.36
49.12
22.45
-4.14
-23.73
-31.02
-24.78
-7.81
15.15
39.44
62.33
82.69
99.82
112.04
116.55
111.47
97.05
76.98
56.62
39.91
27.10
14.44
-3.27
-28.82
-60.37
-92.31
-118.14
-134.39
-141.90
-143.43
-140.72
-133.07
-118.52
-96.35
-69.91
-45.78
-30.08
-24.65
-25.43
-25.41
-18.97
-6.31
7.79
17.54
21.22
22.98
29.46
44.98
66.37
83.76
85.40
64.02
21.91
-29.61
-74.10
-97.25
-92.16
-61.89
-17.20
28.38
63.15
80.81
80.75
66.53
43.48
17.79
-4.44
-18.11
-19.96
-11.14
2.46
11.76
8.88
-8.09
-32.66
-52.54
-55.41
-34.88
5.84
56.30
103.48
137.52
154.19
153.58
138.01
110.14
73.91
35.57
3.81
-13.24
-12.70
0.12
12.54
10.64
-13.26
-55.35
-101.15
-132.50
-136.12
-110.81
-67.25
-23.33
4.17
6.02
-16.88
-54.38
-91.76
-114.97
-115.87
-94.74
-60.86
-28.76
-12.62
-20.19
-48.71
-86.09
-115.38
-122.26
-101.22
-58.16
-7.10
36.65
63.30
72.88
72.48
70.65
71.41
72.19
66.91
51.73
29.15
6.96
-6.07
-6.05
4.20
17.57
27.21
30.42
28.48
23.89
16.99
5.59
-12.77
-37.39
-62.67
-79.96
-81.02
-62.94
-29.71
9.08
42.16
61.60
65.87
59.66
50.47
44.65
43.44
43.22
37.91
23.50
1.37
-21.48
-34.85
-30.64
-6.61
31.71
73.06
105.60
121.81
122.41
114.89
109.17
111.65
120.58
126.56
116.63
81.34
19.53
-59.70
-140.56
-206.80
-247.34
-259.32
-246.52
-215.75
-173.09
-123.18
-70.38
-21.18
16.28
34.89
33.19
18.42
3.68
2.32
19.97
51.21
83.04
102.35
103.87
91.90
76.65
66.46
62.49
59.10
48.19
25.46
-7.44
-44.26
-78.75
-107.34
-128.95
-142.69
-146.09
-136.48
-113.72
-82.56
-51.16
-26.39
-9.42
5.34
25.78
56.27
93.49
128.19
151.51
161.42
164.14
169.29
183.09
202.60
217.47
215.91
192.43
151.19
102.86
58.91
25.11
0.44
-20.63
-43.12
-68.39
-93.62
-113.86
-125.07
-125.78
-117.62
-103.89
-88.43
-74.64
-64.13
-57.04
-52.27
-49.12
-47.65
-48.87
-53.40
-59.20
-61.68
-54.90
-35.65
-5.87
25.84
47.86
49.93
28.11
-13.14
-63.64
-111.50
-148.35
-171.12
-181.40
-182.71
-178.14
-168.71
-152.79
-128.06
-93.33
-51.32
-9.14
24.22
41.68
43.52
38.21
39.56
59.60
101.45
156.72
208.75
241.20
245.75
225.90
193.96
164.79
148.35
146.79
155.30
165.03
167.19
155.20
126.88
84.68
34.80
-14.60
-56.18
-85.73
-103.50
-112.67
-117.72
-121.93
-126.56
-131.34
-134.47
-133.80
-126.81
-111.78
-89.00
-61.84
-37.30
-23.71
-27.81
-50.77
-87.02
-125.75
-154.38
-162.89
-146.15
-105.00
-44.72
26.18
98.39
162.77
212.06
242.43
253.42
247.73
229.80
204.31
174.93
144.04
112.85
82.14
52.45
23.20
-7.20
-40.74
-78.04
-117.03
-152.68
-178.26
-188.28
-180.90
-160.36
-135.37
-116.18
-110.33
-118.29
-132.91
-141.25
-130.24
-92.61
-31.52
39.62
102.58
141.50
150.23
133.58
103.92
74.40
53.05
41.21
35.81
33.59
33.54
36.84
44.31
54.19
61.77
62.45
54.78
41.75
29.62
24.04
27.44
37.41
48.52
55.29
53.64
42.07
21.93
-3.44
-29.49
-50.54
-61.00
-57.41
-39.63
-11.89
18.46
43.51
57.33
57.85
46.24
25.88
0.08
-27.79
-54.42
-76.28
-89.85
-92.99
-86.25
-72.71
-56.76
-42.29
-31.07
-23.33
-18.46
-16.32
-17.65
-22.91
-32.11
-44.30
-58.01
-71.79
-84.35
-93.75
-96.72
-89.13
-67.29
-29.98
19.89
75.41
126.46
163.58
180.83
177.99
159.94
134.88
110.52
91.40
78.10
68.91
62.45
58.85
59.29
64.21
72.53
81.18
85.93
83.21
70.43
47.31
15.83
-18.88
-49.42
-68.19
-70.38
-57.00
-34.29
-11.11
5.36
11.65
8.36
-1.84
-16.97
-36.03
-58.76
-84.10
-109.63
-131.65
-145.84
-148.86
-139.32
-118.99
-92.91
-68.31
-51.77
-46.97
-52.25
-61.90
-69.24
-70.25
-65.65
-58.87
-53.41
-49.37
-43.86
-32.85
-14.60
8.63
32.10
50.45
60.99
64.45
63.90
62.58
61.82
61.21
59.68
57.32
56.03
58.06
64.15
72.36
78.57
78.72
71.39
58.07
42.25
27.19
14.73
5.26
-0.83
-2.93
-0.85
4.59
10.65
13.53
10.16
0.17
-14.43
-30.17
-44.11
-55.20
-63.94
-71.14
-77.32
-82.27
-85.99
-88.85
-90.40
-88.48
-79.41
-60.17
-31.16
2.34
31.06
44.77
36.69
6.51
-39.10
-87.94
-126.53
-143.83
-134.50
-99.74
-47.86
8.09
54.13
79.13
79.57
60.69
34.51
14.79
10.94
24.82
50.27
77.04
95.83
102.61
99.67
92.84
87.51
85.39
84.18
79.57
68.82
52.23
32.64
13.70
-2.35
-14.34
-21.67
-22.96
-16.72
-2.80
15.78
33.11
42.62
39.50
23.12
-2.70
-31.01
-53.96
-64.85
-59.87
-40.12
-10.49
20.62
44.38
54.96
51.63
39.54
27.13
22.66
30.59
50.61
77.58
103.63
120.21
120.13
100.74
64.96
20.94
-21.35
-54.24
-75.37
-87.86
-97.00
-107.12
-117.96
-125.11
-122.55
-106.16
-76.92
-40.77
-6.27
19.47
32.74
33.95
25.46
9.72
-11.95
-38.34
-66.48
-90.51
-102.39
-95.59
-68.08
-25.09
22.62
62.68
85.13
85.23
63.32
23.22
-29.28
-87.30
-142.93
-187.50
-212.01
-210.19
-180.78
-129.49
-68.12
-10.56
32.72
59.06
74.42
90.20
117.09
158.98
210.57
259.50
291.31
295.52
269.62
219.12
154.67
87.10
24.73
-27.98
-68.32
-93.36
-99.79
-85.07
-51.42
-7.99
30.60
49.12
39.00
2.40
-48.09
-96.00
-127.62
-137.70
-129.38
-110.12
-87.03
-64.12
-42.80
-24.00
-9.91
-3.48
-6.02
-15.71
-27.78
-36.84
-39.51
-36.18
-30.01
-25.14
-23.83
-25.08
-24.87
-18.17
-2.22
22.22
50.02
73.07
83.53
75.98
50.85
14.55
-21.64
-45.67
-49.06
-30.41
3.84
42.74
74.89
92.83
95.05
85.56
70.93
57.00
47.59
44.09
46.50
53.45
61.95
66.36
59.37
34.56
-10.11
-69.51
-131.74
-181.17
-204.17
-194.04
-153.31
-93.22
-29.77
20.50
45.79
41.65
12.37
-30.08
-70.40
-94.76
-96.86
-79.88
-54.56
-33.53
-24.40
-25.71
-28.60
-22.16
-0.63
32.72
67.14
89.74
92.86
77.67
52.59
28.49
13.05
7.78
8.56
10.07
9.61
9.22
14.68
31.11
58.83
90.87
114.90
118.86
96.91
54.29
5.54
-31.17
-42.82
-28.02
2.49
30.93
41.54
27.43
-7.55
-52.12
-94.22
-125.61
-143.13
-146.86
-137.25
-113.66
-76.70
-30.45
16.18
52.32
69.85
67.87
53.17
35.98
24.85
22.21
25.07
28.30
28.29
25.17
21.35
20.05
23.38
32.88
49.69
74.67
106.95
141.93
171.75
187.15
181.44
153.06
106.15
48.28
-11.73
-64.82
-102.93
-119.34
-111.87
-85.04
-50.52
-23.07
-14.25
-27.25
-55.18
-85.60
-106.12
-109.85
-96.96
-72.79
-44.58
-18.80
-0.34
8.50
8.00
2.43
-1.43
3.09
18.97
42.48
64.49
75.14
69.22
48.90
22.73
1.02
-8.96
-5.29
7.73
22.29
29.79
24.49
6.26
-19.09
-41.74
-53.44
-51.81
-42.51
-35.86
-39.93
-55.00
-72.34
-79.64
-68.83
-42.40
-11.89
9.02
13.38
4.72
-6.45
-9.85
-2.55
10.64
22.06
27.29
28.55
31.84
41.37
55.54
67.39
69.05
57.82
37.90
17.64
4.07
-2.28
-6.75
-17.28
-38.94
-70.93
-106.76
-136.88
-153.07
-151.21
-133.66
-108.15
-84.90
-72.23
-71.81
-76.93
-74.55
-51.49
-1.21
71.17
149.73
214.04
247.26
244.32
213.07
169.50
129.37
101.40
84.41
71.30
55.76
37.02
21.06
15.54
23.99
41.78
58.07
62.18
49.81
25.97
0.54
-17.74
-26.60
-30.16
-34.12
-40.48
-45.25
-41.22
-23.29
6.15
36.97
55.37
51.00
23.62
-17.12
-55.71
-79.22
-83.32
-73.92
-63.11
-62.31
-76.58
-102.50
-131.39
-154.13
-166.10
-167.81
-163.35
-157.12
-150.64
-143.08
-131.67
-113.46
-86.43
-49.89
-5.25
44.08
92.97
136.53
171.22
195.61
209.33
211.25
198.84
169.25
123.35
67.63
14.42
-22.93
-36.05
-25.60
-1.59
21.32
30.16
18.65
-11.61
-52.72
-94.01
-125.09
-137.80
-128.25
-96.90
-48.98
6.64
59.27
99.06
119.53
118.05
96.39
59.31
14.49
-29.05
-62.57
-79.44
-77.67
-60.21
-34.56
-9.70
6.19
8.28
-3.58
-25.43
-50.32
-70.95
-82.12
-82.33
-73.26
-58.22
-39.91
-19.50
2.15
23.52
41.84
54.50
61.35
65.95
73.73
87.47
104.10
114.18
107.34
78.70
34.23
-10.68
-38.28
-37.29
-9.66
30.49
63.21
72.16
51.76
8.97
-39.95
-77.22
-90.51
-78.32
-50.20
-21.84
-7.70
-13.62
-34.30
-55.71
-62.68
-46.64
-9.80
36.57
78.96
108.47
124.43
131.36
134.25
133.75
126.56
108.84
80.30
45.64
11.12
-19.38
-47.73
-79.86
-120.99
-170.68
-220.58
-257.70
-269.54
-250.40
-202.64
-135.20
-60.19
11.11
70.10
112.24
136.52
145.68
144.98
141.24
140.89
147.09
158.06
166.51
162.78
138.64
92.85
32.84
-26.79
-70.20
-87.36
-77.73
-50.84
-20.76
-0.24
4.19
-6.59
-26.52
-47.53
-62.71
-66.75
-57.19
-33.51
2.49
46.50
91.84
130.20
153.55
155.67
134.55
93.13
39.85
-12.62
-51.15
-66.60
-58.21
-33.40
-5.17
14.01
16.54
1.17
-28.47
-66.77
-107.68
-145.52
-174.05
-186.73
-178.38
-147.97
-100.66
-47.43
-1.48
26.61
32.30
17.95
-9.37
-40.64
-67.33
-83.11
-84.37
-71.03
-46.38
-16.70
10.28
28.05
32.72
24.29
6.33
-15.07
-33.31
-43.45
-42.74
-31.57
-12.63
9.26
28.48
39.78
39.47
26.51
2.57
-27.93
-59.45
-86.83
-106.53
-116.75
-116.25
-103.82
-78.61
-41.87
1.54
42.56
70.39
77.72
64.74
40.11
16.87
6.56
13.52
34.12
60.08
83.38
100.31
111.40
119.56
126.68
132.94
136.27
133.89
123.80
105.30
80.62
53.62
29.39
12.14
3.49
1.88
3.33
3.99
2.12
-0.51
-0.61
4.57
15.33
28.41
39.27
44.17
41.41
31.38
16.08
-1.92
-20.13
-35.74
-46.06
-48.08
-39.21
-18.39
12.40
48.08
81.21
104.61
115.26
115.03
110.12
106.40
105.64
104.67
97.98
83.29
64.36
50.13
48.65
61.19
80.36
93.96
92.10
72.18
39.65
3.29
-29.68
-56.87
-79.87
-100.55
-119.30
-134.18
-143.41
-146.40
-143.99
-137.80
-129.00
-118.60
-108.19
-100.63
-98.67
-103.58
-113.35
-123.16
-127.64
-123.03
-109.21
-88.73
-65.42
-42.43
-21.59
-4.66
5.96
6.80
-5.02
-29.75
-62.12
-92.17
-107.84
-100.21
-68.69
-21.69
25.62
57.95
66.33
52.15
26.32
3.26
-5.34
3.90
25.11
46.87
58.71
56.17
42.87
28.56
23.43
33.29
56.23
83.93
105.21
111.22
99.06
72.12
37.87
3.00
-29.06
-58.77
-87.17
-112.60
-129.27
-129.08
-106.93
-64.54
-12.27
34.12
59.96
58.45
34.43
2.18
-20.72
-22.30
-1.44
32.43
65.38
86.68
93.43
90.39
84.70
80.35
75.56
66.11
50.71
34.85
29.34
43.10
76.65
118.62
150.15
153.75
121.69
59.76
-15.84
-85.36
-133.79
-154.92
-151.55
-131.88
-104.54
-74.91
-45.19
-16.62
8.89
27.44
34.77
28.81
10.77
-14.38
-40.00
-59.59
-68.89
-66.61
-54.55
-36.74
-17.92
-2.72
6.11
7.68
3.61
-2.52
-6.54
-4.96
2.99
15.42
27.80
34.74
31.70
16.79
-7.66
-35.30
-57.21
-65.18
-55.32
-29.96
3.54
35.57
57.55
64.92
56.98
37.42
12.73
-8.82
-19.62
-15.36
3.60
31.60
60.76
83.93
98.65
106.64
111.42
114.66
114.07
105.26
85.22
56.25
25.30
0.75
-12.25
-14.56
-11.56
-10.22
-14.57
-24.35
-35.99
-45.65
-51.72
-55.83
-62.02
-73.60
-92.15
-115.94
-141.92
-167.61
-191.74
-214.10
-232.48
-241.94
-235.19
-206.63
-155.77
-89.83
-21.67
35.93
74.97
95.41
103.12
106.57
112.02
121.75
134.59
147.29
156.50
158.67
150.59
130.03
97.43
57.09
16.21
-17.73
-40.25
-50.81
-52.71
-50.04
-45.68
-41.03
-36.60
-34.00
-35.00
-40.96
-51.35
-63.50
-72.97
-75.78
-69.62
-53.97
-30.43
-1.87
26.76
48.78
57.52
48.60
23.17
-11.67
-45.06
-66.93
-72.26
-63.01
-46.57
-30.62
-19.04
-9.76
2.96
23.64
51.29
78.80
97.18
101.52
95.04
86.70
85.44
93.49
104.47
108.01
97.56
75.15
50.46
34.23
30.88
35.84
39.20
32.84
17.00
-0.61
-10.28
-7.25
4.08
13.09
9.37
-9.82
-37.80
-62.03
-71.38
-62.62
-41.50
-19.59
-7.37
-9.22
-22.06
-38.93
-53.42
-63.57
-71.83
-81.60
-94.33
-107.13
-114.31
-110.32
-93.21
-66.38
-37.58
-15.19
-4.04
-2.95
-5.21
-2.69
9.11
28.42
47.30
56.23
48.65
25.10
-6.92
-36.15
-52.18
-50.19
-31.83
-4.01
25.74
52.85
77.25
101.08
125.21
146.15
156.99
151.59
129.35
97.33
67.08
48.66
45.17
51.51
58.26
58.17
50.23
39.84
34.52
38.06
48.03
57.09
56.76
42.04
13.28
-24.03
-62.20
-93.73
-113.26
-118.30
-109.15
-88.91
-62.75
-37.26
-18.63
-10.78
-13.77
-23.44
-32.45
-33.34
-21.21
4.34
38.31
71.66
94.63
99.78
84.88
53.15
11.41
-32.93
-73.26
-104.44
-122.29
-123.11
-105.90
-74.24
-38.18
-11.59
-6.65
-27.69
-68.24
-113.99
-149.65
-165.89
-162.52
-146.09
-124.16
-100.72
-75.65
-46.97
-14.60
18.45
47.78
70.60
87.70
102.55
118.58
136.56
154.01
166.09
168.65
159.23
138.16
107.46
70.24
30.56
-7.22
-38.06
-57.66
-63.86
-57.34
-41.93
-22.75
-4.77
8.77
16.99
20.37
19.61
14.40
4.30
-10.68
-28.58
-45.93
-59.08
-65.89
-66.83
-63.99
-59.53
-54.53
-48.72
-40.78
-29.61
-14.59
4.18
25.89
48.32
67.77
79.69
80.44
69.22
48.72
23.16
-3.96
-31.63
-59.36
-84.76
-101.89
-102.98
-83.08
-43.97
4.05
46.87
72.54
76.35
62.54
40.86
21.75
11.47
11.48
19.66
33.16
49.96
68.95
89.40
109.43
126.95
140.04
147.54
148.76
142.44
126.78
99.49
60.34
12.49
-36.65
-77.42
-101.63
-106.40
-95.36
-76.33
-57.58
-43.28
-33.12
-24.04
-13.62
-2.94
4.05
2.39
-10.00
-31.24
-55.82
-77.38
-91.11
-94.87
-89.98
-78.85
-63.94
-46.33
-25.57
-0.98
26.71
54.19
76.94
90.13
91.43
81.83
65.08
46.69
31.31
21.42
17.37
18.26
22.21
27.33
30.73
28.73
18.53
-0.03
-22.76
-42.72
-53.31
-52.14
-42.27
-30.28
-22.97
-23.24
-30.74
-43.49
-60.44
-81.96
-107.54
-132.68
-148.45
-145.01
-116.43
-65.79
-4.98
49.06
80.96
83.44
59.35
20.97
-14.94
-33.57
-28.11
-1.95
33.17
62.79
77.33
75.12
61.68
44.33
27.36
10.70
-7.24
-25.38
-38.42
-39.03
-24.17
1.01
23.65
29.46
10.41
-30.22
-78.75
-117.68
-133.12
-120.54
-85.83
-41.93
-3.60
18.76
21.46
7.99
-13.44
-33.71
-45.63
-45.68
-33.70
-12.85
11.73
33.70
47.26
49.54
41.57
28.24
15.81
8.66
7.44
10.08
13.17
14.23
12.19
6.42
-3.67
-17.75
-32.21
-39.75
-31.46
-1.31
49.13
110.43
167.99
208.48
224.26
214.13
182.13
134.59
79.57
26.74
-13.79
-34.62
-34.16
-18.45
0.94
12.86
11.54
-0.65
-15.55
-24.05
-21.21
-7.94
10.63
28.13
41.14
49.57
55.14
58.70
58.38
50.51
32.25
4.84
-26.15
-52.22
-66.30
-65.99
-54.81
-40.56
-31.04
-31.23
-41.26
-57.20
-74.00
-88.19
-98.89
-107.23
-114.57
-119.85
-119.52
-109.51
-87.92
-57.44
-25.22
-0.30
10.95
7.15
-7.53
-26.29
-43.23
-54.24
-57.43
-51.86
-37.77
-17.14
5.42
24.13
34.72
36.84
34.99
35.33
42.16
54.78
67.57
74.00
70.26
58.04
43.05
31.99
28.61
32.59
41.46
52.16
63.50
75.68
89.19
103.47
115.97
122.85
120.32
106.80
82.77
51.49
17.48
-14.97
-42.54
-64.15
-80.54
-93.89
-105.71
-116.50
-124.21
-126.23
-120.41
-106.71
-87.79
-67.46
-49.55
-35.37
-24.47
-14.75
-4.13
8.13
21.36
33.08
40.96
43.08
39.20
31.64
24.69
23.09
29.32
42.25
55.90
62.72
57.80
41.78
21.19
4.59
-1.41
3.96
16.51
28.76
34.13
28.51
11.42
-14.38
-43.23
-67.77
-81.11
-78.55
-60.41
-32.26
-2.44
21.66
37.29
45.65
50.08
52.25
51.18
44.67
32.14
15.93
-0.12
-12.64
-21.33
-27.90
-33.65
-37.96
-38.07
-32.08
-21.16
-10.74
-7.41
-15.12
-31.79
-50.03
-61.56
-61.73
-51.90
-36.89
-20.84
-3.23
20.95
56.60
103.58
153.36
192.34
207.11
191.86
151.61
100.19
53.91
24.01
12.17
11.28
10.57
1.63
-18.02
-44.45
-71.17
-92.81
-107.92
-118.22
-126.71
-134.63
-140.38
-141.07
-135.07
-124.26
-112.70
-104.50
-100.18
-96.70
-89.51
-75.91
-57.95
-41.17
-31.84
-32.96
-42.86
-56.62
-68.87
-76.72
-79.52
-77.31
-69.50
-54.76
-33.22
-7.90
14.63
27.02
24.12
6.14
-20.87
-46.77
-61.14
-58.09
-38.35
-9.05
20.91
44.86
61.62
74.81
89.14
106.48
123.83
135.57
136.79
127.36
111.57
95.52
83.59
75.70
69.29
61.27
51.18
41.15
34.70
34.51
40.74
51.48
62.78
70.34
70.46
61.45
44.49
23.83
5.92
-3.30
-0.31
14.14
36.09
59.74
79.42
90.44
89.33
74.67
47.73
14.36
-17.01
-37.43
-42.01
-32.28
-15.62
-1.71
2.60
-4.22
-18.02
-32.43
-42.11
-44.74
-41.58
-35.13
-28.24
-23.70
-24.21
-32.13
-48.47
-71.89
-98.43
-122.41
-137.98
-140.45
-128.21
-103.32
-70.60
-35.64
-2.39
27.72
55.08
80.46
102.48
117.88
123.29
117.50
102.30
82.04
61.41
44.06
31.78
25.70
26.35
33.49
44.49
54.41
57.82
52.20
40.57
29.74
27.02
35.16
50.75
66.19
73.65
69.49
54.81
34.09
11.36
-11.21
-33.62
-56.05
-76.76
-91.52
-95.43
-85.86
-64.79
-39.83
-21.49
-18.58
-33.52
-59.89
-85.91
-99.93
-97.10
-82.49
-68.01
-64.32
-74.20
-90.56
-100.17
-92.49
-65.49
-27.30
8.94
32.24
38.93
33.13
22.81
14.65
10.72
9.25
6.71
0.94
-7.72
-17.21
-25.25
-30.89
-34.13
-35.11
-32.47
-23.78
-7.33
16.56
44.46
70.49
88.81
96.31
93.32
82.86
68.87
54.30
40.86
29.44
21.14
17.30
18.79
25.15
34.42
43.34
49.02
49.88
45.39
35.90
21.89
4.54
-14.33
-31.97
-45.21
-51.41
-49.44
-40.22
-26.01
-9.61
6.47
20.25
30.24
35.56
35.85
32.39
28.30
27.39
32.72
43.73
55.76
61.55
53.99
30.71
-5.04
-44.79
-78.28
-97.68
-100.44
-89.82
-72.85
-57.23
-48.92
-49.67
-57.82
-69.01
-77.94
-80.75
-76.21
-65.91
-53.74
-44.03
-39.87
-41.28
-45.77
-48.91
-47.03
-38.25
-23.63
-6.15
11.42
27.14
41.04
53.97
65.70
75.30
80.82
81.33
77.14
69.88
61.60
53.45
45.42
36.56
26.06
13.86
0.94
-11.41
-21.09
-26.32
-25.91
-19.84
-9.81
1.16
9.24
11.88
8.12
-0.44
-10.83
-19.62
-23.87
-22.32
-15.53
-5.97
3.12
8.63
8.44
2.45
-8.62
-23.25
-39.77
-56.83
-73.05
-86.64
-95.64
-98.78
-95.57
-86.42
-71.59
-51.76
-28.45
-5.30
12.07
18.76
13.52
0.41
-13.29
-20.94
-20.59
-15.61
-11.60
-12.45
-17.14
-20.86
-19.22
-11.72
-1.63
6.58
11.91
18.19
31.81
56.74
91.32
127.53
155.01
166.19
159.48
139.95
116.24
96.24
83.99
78.78
76.63
73.69
68.12
60.93
54.82
52.36
55.18
63.13
75.23
89.37
103.02
112.80
114.89
106.71
87.14
57.70
21.65
-17.38
-56.06
-92.09
-123.28
-147.28
-161.15
-163.77
-156.24
-142.24
-126.46
-112.71
-102.68
-95.67
-90.07
-83.73
-75.38
-64.28
-50.27
-34.22
-17.66
-3.16
7.07
11.37
10.28
6.38
4.08
7.38
17.76
33.42
48.69
56.83
52.55
35.29
9.97
-15.73
-35.00
-45.33
-48.26
-47.44
-45.08
-40.84
-32.63
-19.31
-3.49
9.26
12.44
3.50
-14.71
-34.04
-44.69
-39.88
-18.79
12.51
44.87
69.80
83.63
89.10
93.17
102.47
118.92
137.98
151.33
151.87
137.77
113.64
88.35
69.96
63.00
67.24
79.33
94.60
108.22
115.55
112.44
97.17
71.70
42.11
16.29
0.26
-4.74
-2.49
0.48
-2.02
-13.62
-35.60
-67.53
-107.68
-152.95
-197.99
-236.66
-264.17
-279.00
-283.83
-283.11
-279.98
-273.77
-260.87
-237.28
-201.97
-157.92
-110.54
-64.26
-20.23
23.48
69.02
115.01
156.13
185.40
198.41
197.01
188.02
179.45
174.80
170.31
157.46
129.25
85.87
35.32
-10.55
-42.70
-58.97
-64.10
-65.92
-70.81
-81.01
-95.28
-111.47
-127.80
-143.15
-156.08
-164.44
-166.17
-160.11
-146.52
-126.50
-101.29
-72.48
-42.76
-16.30
3.07
13.55
16.97
17.38
19.04
24.22
32.17
40.83
48.95
58.01
71.89
94.13
124.32
156.44
180.88
188.26
174.27
141.86
100.77
62.66
36.65
25.06
23.23
22.84
16.37
1.53
-18.30
-36.55
-47.69
-50.11
-45.71
-38.11
-30.04
-23.46
-20.17
-23.04
-35.02
-56.28
-81.93
-100.99
-100.56
-71.59
-14.48
59.56
131.76
182.83
200.44
182.91
139.25
83.91
31.26
-9.09
-33.18
-41.91
-39.04
-28.73
-15.45
-3.25
3.92
3.15
-5.82
-19.72
-32.34
-36.73
-27.49
-4.13
28.42
61.29
85.30
94.86
89.24
72.70
51.62
31.54
15.35
3.72
-3.29
-4.82
1.14
15.41
36.10
58.05
74.35
79.87
74.14
61.97
50.85
47.00
51.33
58.17
58.05
42.36
8.38
-38.78
-88.87
-132.05
-163.56
-185.29
-202.50
-218.73
-232.77
-238.73
-231.50
-210.84
-183.07
-157.94
-142.57
-137.09
-134.22
-124.46
-101.02
-63.86
-18.93
25.35
61.76
86.57
99.22
101.30
94.99
82.46
66.22
49.09
33.99
23.56
19.28
21.03
27.85
38.77
53.74
73.94
100.88
135.36
175.45
216.37
251.06
272.72
276.61
261.07
227.40
178.75
119.97
57.49
0.19
-41.79
-59.98
-51.68
-22.82
13.16
39.63
44.45
25.40
-9.58
-47.13
-76.31
-94.16
-105.31
-116.14
-128.63
-136.89
-130.50
-101.93
-53.00
3.09
47.84
66.30
54.09
18.49
-25.89
-64.41
-87.97
-94.23
-85.97
-68.42
-47.52
-28.89
-16.99
-13.64
-16.23
-19.06
-16.01
-4.53
12.42
27.96
34.89
30.43
17.40
2.44
-8.24
-11.62
-8.95
-4.86
-4.26
-10.55
-23.39
-39.63
-53.64
-59.26
-52.19
-32.42
-4.67
22.94
42.01
47.94
41.70
28.86
16.63
10.21
11.27
17.43
24.87
29.47
28.52
21.14
8.16
-8.35
-25.93
-41.99
-54.35
-60.05
-55.88
-39.22
-9.88
28.05
66.71
96.44
109.90
104.03
80.90
46.01
5.56
-35.47
-74.04
-108.37
-137.03
-158.27
-170.52
-173.79
-170.06
-163.47
-158.37
-157.64
-160.52
-162.18
-154.54
-130.32
-87.56
-32.25
22.89
64.13
82.68
79.07
61.60
40.65
22.96
9.19
-3.31
-16.23
-27.17
-31.42
-25.85
-12.46
1.19
6.00
-4.48
-31.04
-69.31
-112.02
-151.99
-183.78
-204.20
-212.55
-209.50
-196.33
-174.43
-144.45
-106.28
-60.05
-8.22
43.98
89.82
124.58
148.12
165.43
183.97
209.33
242.43
278.13
308.62
327.09
331.60
326.27
318.87
316.92
323.78
337.47
351.93
361.05
361.63
354.70
344.00
332.46
319.54
300.55
269.14
221.28
157.57
83.99
9.01
-58.66
-112.32
-148.01
-164.86
-165.09
-154.24
-140.55
-132.69
-136.55
-152.14
-174.17
-194.65
-207.23
-210.37
-205.84
-195.69
-179.05
-152.94
-116.06
-73.17
-35.15
-13.30
-12.80
-28.42
-47.38
-57.32
-53.23
-39.33
-25.02
-18.06
-19.24
-24.35
-28.41
-30.00
-31.78
-37.47
-47.62
-58.67
-65.89
-66.86
-63.96
-62.06
-65.21
-73.77
-84.02
-90.69
-89.12
-76.96
-53.50
-19.43
23.41
71.02
116.32
150.86
167.65
164.19
143.10
110.71
73.57
36.43
2.10
-28.39
-53.20
-70.30
-78.12
-77.16
-70.46
-62.95
-59.76
-63.51
-74.08
-88.63
-104.29
-119.34
-133.36
-146.66
-158.44
-166.12
-164.96
-150.45
-120.63
-78.32
-30.86
12.65
44.94
63.39
70.06
69.67
66.59
63.51
61.28
59.46
58.08
57.29
58.08
61.74
69.77
82.72
99.11
115.34
124.94
121.38
101.23
67.75
30.73
2.74
-6.79
2.37
21.30
35.84
34.84
15.84
-13.82
-41.20
-54.66
-49.00
-27.31
2.19
30.40
50.33
57.78
50.26
25.99
-15.47
-71.21
-133.93
-191.86
-231.93
-242.74
-218.88
-163.38
-87.45
-8.26
56.67
94.83
103.37
89.09
64.95
44.09
33.95
35.49
44.59
56.14
66.44
73.63
76.43
73.17
63.00
47.22
30.81
20.69
22.83
38.50
62.54
85.31
96.62
90.76
68.76
38.12
9.57
-7.06
-6.49
10.35
37.38
65.50
86.26
94.17
87.94
69.82
43.81
14.65
-13.82
-37.97
-54.87
-62.29
-59.95
-50.68
-40.55
-37.81
-48.98
-75.51
-111.06
-143.48
-160.06
-153.63
-127.13
-91.38
-60.30
-43.93
-44.43
-56.90
-72.27
-82.18
-81.15
-68.48
-46.99
-22.66
-2.29
8.02
5.59
-7.28
-24.38
-37.42
-40.91
-34.28
-21.90
-9.84
-2.35
-0.53
-2.65
-6.61
-10.20
-11.19
-6.11
8.56
34.25
67.82
101.17
125.01
133.54
128.40
118.15
113.45
121.34
140.66
162.90
175.80
169.66
141.20
95.43
43.53
-0.98
-26.56
-27.90
-7.38
25.12
56.30
74.10
72.34
52.06
20.07
-14.29
-42.80
-59.95
-63.62
-53.93
-32.90
-3.67
29.50
61.23
85.99
99.13
98.75
86.34
66.31
44.11
23.83
7.86
-3.19
-9.41
-11.38
-10.50
-9.33
-11.15
-18.00
-29.06
-39.66
-44.37
-40.92
-33.64
-32.65
-48.67
-85.56
-135.78
-182.64
-208.20
-202.70
-170.15
-125.93
-88.64
-69.78
-69.05
-76.26
-79.23
-71.36
-54.45
-35.47
-20.61
-10.95
-2.65
8.64
22.93
34.85
36.64
23.87
-1.07
-28.89
-48.57
-52.41
-39.33
-14.86
12.29
33.46
43.27
39.82
24.56
0.68
-27.94
-56.86
-81.28
-95.77
-95.53
-78.44
-46.62
-5.92
36.04
73.28
103.27
126.47
143.93
154.56
154.85
140.97
112.51
74.44
35.92
7.02
-6.25
-3.70
9.66
26.55
40.97
49.33
50.16
42.93
28.61
9.72
-9.02
-22.57
-28.29
-27.82
-26.40
-29.48
-38.60
-49.40
-54.48
-48.60
-34.25
-21.92
-24.79
-50.72
-95.42
-143.35
-174.87
-176.58
-147.06
-95.98
-37.80
16.44
62.74
102.11
135.23
158.97
167.23
155.41
125.41
85.53
46.75
16.38
-5.73
-25.76
-51.00
-84.46
-122.91
-158.23
-181.77
-187.69
-175.25
-148.48
-114.62
-81.83
-55.66
-38.05
-26.59
-16.29
-2.69
15.72
36.13
53.68
63.49
64.03
57.32
48.03
40.81
38.23
40.40
44.70
47.74
45.83
37.01
22.14
5.24
-7.64
-11.37
-4.20
10.80
27.96
41.38
47.69
46.24
37.93
23.83
4.57
-17.35
-36.95
-46.75
-40.19
-15.81
21.14
59.78
89.13
102.16
98.81
83.40
62.01
39.30
18.35
2.23
-5.01
0.70
20.43
50.87
83.97
110.22
122.53
118.81
102.41
79.80
58.48
44.25
40.57
47.92
64.32
85.45
104.72
115.31
111.96
93.93
66.78
40.87
27.65
34.26
59.85
95.45
128.15
146.36
144.92
126.26
97.84
68.05
42.75
23.76
9.21
-4.20
-20.40
-43.09
-74.55
-115.09
-161.43
-207.08
-243.40
-262.84
-262.23
-244.40
-216.88
-187.89
-162.87
-141.91
-121.71
-99.23
-74.91
-53.25
-39.03
-33.43
-31.94
-26.99
-13.09
8.57
29.73
40.89
37.31
23.69
11.88
14.36
35.81
69.97
102.37
117.57
106.98
71.46
19.89
-36.43
-87.26
-125.17
-145.04
-143.29
-119.79
-79.09
-31.23
11.72
39.60
48.78
41.89
25.28
5.63
-13.56
-30.26
-42.83
-48.95
-46.42
-35.86
-21.17
-7.99
0.15
3.55
6.65
14.71
30.11
51.10
72.32
87.22
90.06
78.14
51.68
14.54
-26.25
-62.31
-85.55
-91.32
-79.95
-56.92
-30.50
-9.26
0.98
-1.99
-17.09
-39.55
-62.56
-77.50
-76.09
-54.06
-13.52
35.65
78.59
100.74
95.17
65.63
25.76
-6.84
-18.78
-5.79
27.11
69.84
112.29
148.65
176.23
192.96
195.15
178.45
141.69
89.98
35.16
-8.91
-32.09
-33.08
-19.04
-0.99
11.24
13.55
7.15
-4.39
-17.60
-30.86
-43.50
-54.91
-63.99
-70.40
-74.63
-77.88
-80.53
-81.81
-81.02
-79.29
-80.79
-90.22
-109.57
-134.20
-153.33
-154.53
-130.96
-86.06
-32.93
11.68
35.62
35.88
18.34
-7.82
-35.18
-60.02
-81.16
-95.85
-98.50
-82.61
-44.35
13.27
80.21
141.88
185.15
202.89
196.07
171.83
139.54
106.91
77.33
50.85
25.50
0.31
-23.64
-42.90
-52.74
-49.56
-31.91
-1.73
35.94
73.60
102.80
116.55
112.24
93.74
70.21
52.70
48.56
57.99
73.65
84.32
80.42
57.36
17.87
-30.72
-79.32
-120.94
-152.05
-171.97
-181.27
-179.53
-165.62
-138.50
-100.27
-57.32
-20.10
0.92
1.16
-15.13
-35.31
-45.09
-35.86
-9.71
21.47
43.10
45.54
29.30
3.17
-21.25
-35.32
-36.51
-27.79
-14.44
-1.17
8.16
11.58
9.12
3.02
-2.95
-5.42
-3.56
-0.07
0.50
-4.99
-15.31
-25.67
-30.21
-25.76
-13.75
2.05
17.92
32.56
45.81
56.27
60.67
54.29
35.52
8.07
-18.77
-34.01
-30.02
-5.77
33.33
78.61
122.10
158.64
184.71
197.19
193.29
171.64
133.95
85.22
32.62
-17.01
-58.05
-86.38
-98.56
-92.30
-68.26
-31.35
8.76
41.56
60.07
64.39
61.03
57.60
57.63
56.98
47.18
20.27
-25.35
-84.17
-146.11
-200.43
-239.50
-259.09
-258.07
-236.79
-197.73
-146.06
-89.58
-37.88
0.32
19.29
18.57
1.96
-22.73
-46.16
-59.96
-59.13
-44.50
-21.98
-1.32
8.37
1.92
-19.24
-47.74
-72.94
-84.43
-76.40
-48.66
-8.00
34.83
68.24
84.15
81.34
65.59
48.25
40.95
51.65
81.52
125.01
172.34
212.73
237.76
242.66
227.28
194.80
151.57
105.84
66.95
43.63
41.10
59.34
91.30
125.01
147.39
150.22
133.14
103.32
71.22
44.32
24.42
7.71
-10.80
-33.77
-59.83
-84.81
-104.79
-116.68
-118.83
-110.80
-93.51
-70.63
-48.35
-33.61
-30.07
-35.97
-44.50
-48.41
-44.25
-34.88
-27.85
-30.66
-46.29
-70.52
-94.55
-108.74
-108.28
-95.26
-77.80
-65.55
-63.99
-71.55
-80.17
-80.44
-67.08
-42.57
-16.20
1.70
5.44
-3.28
-17.26
-28.77
-33.93
-34.48
-35.19
-40.47
-50.71
-62.10
-67.76
-61.13
-39.28
-4.35
36.33
72.82
95.93
100.78
88.23
64.46
37.75
15.30
1.12
-4.93
-5.60
-5.22
-7.15
-13.27
-23.55
-36.38
-49.64
-61.03
-68.55
-70.23
-64.56
-50.90
-30.29
-5.88
17.92
36.59
47.88
52.07
51.46
49.11
47.01
45.52
43.43
39.33
32.16
22.31
10.99
-0.42
-11.01
-20.91
-30.51
-39.46
-45.47
-44.72
-33.02
-8.33
26.58
63.96
93.33
106.26
99.62
77.61
48.97
22.32
2.92
-8.49
-13.62
-14.19
-10.43
-1.94
10.63
23.86
31.97
29.52
14.10
-11.32
-39.53
-61.00
-67.76
-56.35
-29.60
3.40
30.41
40.65
29.77
2.58
-28.72
-50.52
-55.71
-47.51
-38.21
-40.97
-61.13
-91.44
-115.34
-116.73
-89.32
-41.12
10.64
49.32
68.53
74.65
81.48
100.62
133.39
170.43
197.10
202.45
184.64
150.66
111.03
73.37
39.66
7.69
-24.22
-53.86
-75.59
-84.11
-78.26
-62.01
-42.68
-26.53
-16.56
-11.80
-8.64
-3.54
5.56
17.82
30.20
37.73
35.50
20.45
-6.48
-39.47
-69.36
-86.03
-83.01
-60.10
-23.48
17.12
52.03
74.80
83.23
78.25
62.51
38.60
9.18
-22.77
-53.24
-77.08
-89.49
-87.21
-70.22
-41.52
-6.11
30.05
60.82
80.22
82.98
65.76
29.94
-16.97
-62.43
-93.00
-99.80
-82.31
-49.00
-13.26
12.71
22.93
19.36
8.92
-2.03
-11.33
-20.96
-33.48
-47.32
-56.05
-51.86
-31.07
1.73
34.94
55.07
54.11
33.73
4.22
-20.80
-31.14
-23.38
-0.44
31.46
65.66
96.18
117.53
124.24
112.20
80.34
32.92
-21.07
-69.74
-102.04
-111.40
-97.54
-66.26
-26.32
13.56
48.20
76.08
97.87
113.56
120.33
113.53
88.97
47.30
-4.69
-54.48
-88.57
-97.65
-80.82
-46.82
-10.33
13.65
16.34
-2.34
-34.18
-66.84
-89.18
-95.52
-87.50
-72.03
-58.87
-55.65
-65.45
-85.07
-107.00
-122.44
-124.91
-113.12
-90.36
-62.98
-36.65
-14.59
2.24
14.02
20.11
19.69
12.22
-0.11
-12.65
-19.42
-15.17
2.02
29.86
62.41
91.91
111.63
118.28
113.13
102.00
91.93
88.07
91.18
97.45
100.99
96.98
84.54
66.36
47.18
31.02
19.33
11.06
4.22
-2.30
-7.85
-10.77
-9.83
-5.60
0.17
5.21
8.64
11.24
14.35
18.79
23.22
24.57
19.88
7.80
-10.07
-30.44
-50.83
-70.08
-88.07
-103.86
-114.69
-116.19
-105.16
-81.67
-49.24
-14.15
16.92
39.38
51.89
55.74
54.17
50.49
46.09
40.67
32.62
20.02
2.35
-19.29
-42.05
-62.78
-79.02
-89.08
-91.64
-84.80
-67.12
-39.38
-6.74
21.85
36.58
32.28
12.14
-12.89
-28.76
-25.68
-3.21
30.04
61.48
81.37
87.07
82.99
76.00
70.05
63.82
52.70
32.90
5.36
-23.29
-43.60
-48.21
-35.98
-12.88
10.22
22.36
18.28
1.18
-18.07
-26.40
-14.82
16.83
59.85
101.61
131.86
147.04
149.57
144.36
133.49
113.91
79.97
28.00
-38.59
-109.56
-170.91
-211.65
-228.60
-226.69
-215.31
-202.13
-189.11
-172.22
-145.47
-106.13
-58.09
-11.09
24.07
40.71
39.93
29.83
21.05
21.04
30.07
41.67
46.56
38.15
16.17
-12.25
-36.14
-45.50
-35.68
-8.87
27.97
66.68
100.79
125.72
138.65
137.48
121.27
91.56
52.35
9.96
-28.83
-57.75
-73.08
-73.87
-61.99
-41.77
-18.80
1.90
17.55
28.44
37.93
50.60
69.08
91.98
113.77
127.38
127.30
112.94
88.83
63.12
43.97
35.35
35.56
37.79
34.23
19.87
-4.35
-32.34
-55.63
-67.03
-64.10
-48.58
-25.62
-1.02
19.39
30.78
29.52
14.10
-13.74
-48.56
-81.44
-103.11
-107.42
-94.23
-69.69
-43.15
-22.86
-12.13
-9.65
-11.85
-16.41
-23.48
-34.18
-48.72
-64.38
-77.38
-84.26
-83.66
-76.35
-63.97
-48.22
-31.04
-16.44
-10.18
-18.24
-42.84
-79.87
-119.41
-149.46
-160.97
-150.27
-119.61
-74.22
-19.45
39.81
98.97
152.30
193.37
216.01
217.39
199.51
169.24
136.67
110.96
97.53
96.02
102.03
109.33
113.01
111.31
104.28
92.38
73.85
45.50
4.24
-49.29
-108.85
-163.53
-201.08
-213.15
-198.22
-162.82
-118.22
-76.37
-46.41
-31.96
-31.84
-40.35
-50.23
-53.90
-46.65
-27.28
0.86
31.28
56.96
72.99
78.29
74.63
65.45
53.71
41.38
30.11
21.48
17.30
18.01
22.34
26.76
27.06
19.93
4.34
-17.91
-42.84
-64.52
-77.17
-76.53
-61.15
-33.61
0.64
34.66
62.97
82.84
94.89
100.39
99.19
88.45
64.39
26.13
-20.74
-64.02
-88.76
-83.91
-48.71
5.38
59.54
95.22
102.11
81.40
43.74
2.73
-30.60
-51.15
-59.20
-57.97
-52.14
-46.10
-43.54
-46.55
-54.92
-66.51
-78.46
-89.36
-99.77
-110.70
-120.87
-124.89
-115.34
-87.48
-44.86
0.72
33.65
42.26
25.88
-4.72
-31.88
-40.38
-23.44
14.71
61.80
103.74
130.34
138.63
132.58
120.60
110.25
105.44
104.52
102.28
93.38
75.61
51.58
26.38
4.93
-11.19
-23.18
-32.74
-39.79
-41.75
-35.62
-20.82
-2.05
12.23
13.56
-1.97
-30.75
-63.67
-90.73
-106.42
-111.52
-111.66
-112.43
-115.25
-116.39
-109.75
-91.63
-63.09
-29.77
2.52
31.49
59.84
92.60
131.82
173.30
206.65
220.32
207.31
168.67
113.69
55.71
6.62
-27.34
-46.53
-56.00
-61.32
-65.39
-68.22
-68.37
-66.03
-64.39
-68.56
-81.85
-102.78
-124.02
-135.11
-127.49
-98.39
-52.27
1.34
51.56
89.87
111.17
112.73
93.64
55.18
2.75
-53.27
-98.68
-119.84
-109.49
-69.91
-12.77
45.57
89.89
111.14
108.49
88.28
60.67
35.28
18.46
11.66
13.12
20.14
31.11
45.38
62.41
79.90
92.54
93.99
79.65
49.84
10.93
-26.61
-53.14
-64.55
-63.36
-56.82
-52.03
-52.45
-56.93
-61.58
-61.94
-54.25
-36.06
-5.51
37.48
89.60
142.77
185.39
206.50
201.14
173.26
133.24
92.39
56.66
25.28
-6.01
-38.51
-67.13
-82.89
-78.78
-56.11
-25.19
-0.82
5.99
-6.09
-29.43
-52.29
-66.58
-71.24
-71.70
-74.57
-82.95
-94.31
-102.09
-100.44
-87.59
-67.89
-49.36
-39.84
-43.10
-56.25
-70.61
-74.98
-60.78
-25.05
26.92
83.44
130.89
158.72
163.60
149.25
124.15
96.34
70.98
49.20
30.66
16.31
9.04
12.76
27.95
50.24
70.58
80.27
75.42
59.36
40.34
25.07
14.48
2.64
-18.85
-54.76
-102.51
-152.37
-192.80
-216.07
-222.10
-216.25
-204.90
-190.60
-171.20
-143.24
-106.19
-65.41
-30.56
-11.82
-14.20
-35.46
-66.14
-93.40
-105.83
-96.58
-65.12
-16.57
40.45
96.83
144.57
178.04
194.83
195.33
182.65
161.53
137.04
113.00
90.71
69.17
46.34
21.45
-4.35
-28.80
-50.71
-71.00
-91.36
-111.34
-125.96
-126.78
-106.71
-66.65
-18.25
19.20
28.07
2.37
-48.51
-103.80
-141.64
-149.31
-127.37
-86.71
-41.27
-1.97
25.77
40.56
42.77
33.96
17.74
1.62
-4.90
5.27
32.16
67.11
96.68
109.98
104.99
88.88
73.72
69.10
77.57
94.71
112.77
125.30
128.71
122.23
105.87
80.51
49.33
18.77
-2.32
-7.12
5.20
27.37
47.02
52.31
37.79
6.23
-33.75
-72.24
-102.81
-122.28
-129.52
-122.98
-100.54
-61.75
-9.91
47.08
99.70
140.30
166.90
182.99
195.11
208.06
220.78
226.78
217.23
187.24
139.79
85.63
38.93
10.85
5.14
16.55
34.95
49.74
53.77
44.38
22.24
-10.77
-52.14
-97.97
-143.35
-182.50
-211.29
-228.26
-234.66
-233.40
-227.42
-219.09
-209.77
-200.47
-191.52
-182.89
-173.29
-160.60
-143.18
-120.57
-94.30
-66.25
-37.90
-9.95
16.80
40.96
60.74
74.96
85.21
95.12
108.18
125.27
143.58
158.03
163.51
157.92
142.74
122.63
103.11
88.75
81.87
82.43
88.76
97.45
104.08
104.10
94.17
73.39
43.56
8.40
-28.18
-62.96
-94.89
-123.02
-145.28
-158.37
-158.45
-143.71
-116.99
-86.68
-63.64
-57.24
-70.48
-97.63
-126.81
-145.12
-144.71
-125.62
-94.90
-62.25
-35.44
-17.50
-7.42
-3.39
-4.18
-9.54
-18.33
-26.26
-25.96
-10.04
23.65
69.58
114.88
145.78
153.38
138.17
109.20
78.46
55.31
42.99
40.01
43.01
50.01
59.97
71.04
79.37
79.72
68.46
46.36
19.45
-4.15
-18.05
-20.34
-13.60
-2.15
9.86
20.43
28.57
32.68
29.50
15.56
-9.42
-41.21
-70.31
-86.43
-82.75
-60.27
-27.93
1.13
15.15
9.61
-12.23
-41.46
-68.50
-87.15
-96.38
-98.86
-97.81
-95.05
-90.07
-81.68
-68.51
-50.07
-26.71
0.36
28.80
55.60
77.19
90.86
95.05
89.96
77.05
57.88
34.23
7.59
-20.05
-47.08
-71.66
-92.69
-109.46
-120.93
-126.00
-122.90
-110.63
-89.30
-60.89
-28.07
7.22
44.24
82.89
121.66
157.06
183.77
196.54
192.23
171.73
139.85
103.11
67.27
34.92
5.90
-20.66
-43.90
-59.90
-64.00
-54.56
-35.46
-15.44
-4.06
-6.27
-19.51
-35.05
-42.91
-37.78
-21.43
-1.18
15.05
22.54
21.30
14.25
5.07
-2.48
-5.05
0.18
14.19
34.27
53.77
64.24
60.43
43.14
19.91
-0.18
-11.67
-15.62
-18.43
-26.05
-39.69
-54.66
-64.06
-64.17
-56.83
-47.99
-42.67
-41.05
-37.54
-24.67
2.12
40.33
80.82
111.95
125.23
118.92
97.58
69.70
42.50
19.22
-1.54
-23.32
-47.76
-73.64
-96.39
-111.91
-119.10
-120.97
-122.27
-125.62
-129.05
-126.00
-110.15
-79.26
-38.28
3.16
34.77
50.36
50.12
38.73
22.78
6.69
-7.40
-19.42
-29.47
-36.48
-38.67
-33.77
-21.31
-2.75
17.64
34.51
43.51
43.36
37.29
31.20
31.46
41.72
61.61
87.39
114.49
139.41
159.59
172.71
175.98
167.49
147.70
121.24
94.83
73.49
58.24
44.89
28.41
6.64
-17.37
-36.84
-45.61
-41.74
-29.11
-14.36
-2.96
4.13
10.35
20.89
39.27
64.93
93.65
118.21
130.95
125.84
101.04
60.17
11.46
-34.63
-69.87
-91.11
-100.44
-102.87
-103.27
-104.13
-105.10
-105.58
-106.14
-109.88
-120.26
-138.54
-162.50
-186.44
-204.18
-210.68
-203.64
-182.50
-147.68
-100.56
-44.33
14.30
65.31
96.65
98.89
69.01
13.24
-54.05
-114.82
-154.41
-167.17
-157.25
-135.86
-114.79
-101.48
-96.59
-95.86
-94.25
-88.72
-79.20
-66.96
-53.90
-41.09
-29.79
-21.52
-17.06
-14.93
-9.90
5.34
37.31
88.08
153.19
222.85
284.66
327.51
343.47
329.49
287.53
224.67
151.87
82.80
29.93
1.57
-0.32
19.45
51.33
84.01
107.47
115.63
107.14
85.39
56.83
28.76
6.56
-7.59
-15.03
-18.90
-21.71
-23.62
-21.92
-13.46
2.53
22.65
39.84
46.20
36.56
10.49
-28.07
-71.86
-112.97
-143.71
-157.97
-152.82
-129.99
-96.84
-64.58
-44.15
-41.40
-53.52
-70.52
-79.74
-72.38
-47.13
-9.32
32.71
71.43
101.58
120.00
124.23
113.13
88.15
54.95
23.01
1.85
-2.98
7.36
25.60
42.45
51.23
50.30
43.07
34.57
28.17
24.32
20.68
15.69
9.30
3.75
0.98
0.78
0.31
-4.92
-17.45
-36.16
-56.28
-71.51
-77.20
-72.17
-59.66
-44.89
-33.65
-29.39
-32.37
-39.92
-47.35
-50.13
-45.41
-33.27
-16.74
-0.10
12.68
18.97
17.96
10.18
-2.63
-17.54
-31.29
-40.93
-44.89
-43.49
-38.48
-32.26
-26.07
-20.36
-14.24
-7.56
-0.85
4.80
8.27
9.68
10.35
12.25
16.83
25.10
36.76
50.38
62.87
69.65
66.34
50.55
24.07
-6.58
-32.03
-43.42
-36.15
-12.18
19.91
48.25
62.20
56.63
33.97
2.54
-27.03
-46.45
-51.45
-42.51
-22.83
2.31
27.11
46.12
55.53
55.35
50.14
47.20
52.10
65.54
81.81
92.18
90.28
75.23
52.13
27.73
7.23
-8.34
-20.55
-30.41
-37.55
-40.53
-39.29
-36.02
-34.46
-37.41
-45.83
-58.25
-72.67
-87.77
-102.69
-115.84
-123.61
-121.56
-106.00
-76.36
-36.49
7.09
47.25
79.26
101.26
114.01
119.01
117.79
112.22
104.50
97.67
93.59
91.96
89.92
83.39
69.58
48.33
22.16
-5.99
-34.39
-62.77
-90.18
-113.67
-128.28
-130.33
-120.29
-103.60
-88.03
-79.38
-78.76
-82.23
-83.92
-80.32
-71.88
-61.93
-53.91
-49.41
-47.37
-45.19
-40.78
-33.83
-26.28
-20.77
-19.16
-21.54
-25.94
-29.83
-31.68
-31.69
-31.39
-31.72
-31.98
-30.12
-24.64
-16.37
-8.71
-5.51
-9.06
-18.41
-29.65
-38.05
-40.75
-37.09
-27.61
-13.30
5.08
25.63
45.57
61.58
71.62
76.31
78.06
79.54
81.31
82.06
80.03
75.19
70.82
71.25
78.77
90.47
98.51
93.58
70.75
33.01
-8.94
-41.17
-53.71
-43.88
-16.77
18.78
54.69
86.52
112.75
132.55
143.52
141.51
124.05
91.88
50.22
6.78
-30.74
-57.26
-71.26
-73.70
-68.09
-58.95
-51.43
-49.60
-54.54
-64.47
-75.34
-83.74
-88.74
-93.12
-101.02
-114.99
-133.78
-152.14
-163.68
-163.68
-151.78
-131.87
-109.83
-91.04
-78.26
-71.45
-68.60
-67.65
-66.68
-63.70
-57.14
-45.62
-28.92
-8.54
11.95
28.37
37.23
37.20
29.50
16.67
1.98
-12.17
-23.27
-28.39
-23.77
-5.81
26.10
68.45
114.19
155.24
185.68
203.92
212.18
213.88
211.96
207.60
201.68
195.61
191.21
189.45
188.41
184.64
174.56
157.80
137.61
119.11
106.21
98.85
93.74
86.48
75.29
62.11
52.05
49.43
56.11
69.91
85.30
96.29
97.38
86.27
64.58
37.61
12.59
-4.17
-10.62
-9.81
-7.31
-8.84
-16.71
-29.28
-42.40
-52.23
-57.38
-59.06
-60.23
-63.03
-67.96
-73.66
-77.92
-78.95
-76.38
-71.65
-67.69
-68.03
-74.63
-87.45
-103.92
-120.24
-134.08
-145.08
-155.46
-167.41
-181.11
-193.35
-198.70
-191.79
-170.18
-136.37
-97.12
-62.15
-40.10
-36.43
-51.10
-78.91
-111.24
-138.47
-152.82
-149.09
-126.08
-85.74
-33.55
22.62
73.83
112.24
134.59
143.14
144.63
146.05
150.58
155.74
155.14
143.95
122.67
98.08
78.73
69.98
70.14
70.98
63.09
41.15
7.42
-30.49
-63.29
-85.15
-95.07
-95.64
-90.26
-80.85
-67.85
-50.71
-29.71
-6.49
16.51
36.90
53.35
64.51
68.96
65.01
51.82
30.59
5.72
-16.63
-31.07
-35.21
-31.83
-27.09
-28.37
-40.00
-61.28
-86.96
-109.67
-123.10
-123.40
-109.84
-83.50
-47.79
-8.02
27.78
50.25
52.60
33.92
1.86
-29.44
-45.07
-36.32
-4.61
39.01
79.26
103.89
108.27
96.08
76.13
57.97
47.73
46.97
53.63
63.52
72.33
76.23
73.13
62.28
44.23
19.98
-9.27
-41.08
-71.70
-95.59
-107.20
-102.96
-83.72
-55.55
-27.49
-8.52
-2.94
-8.97
-19.30
-25.83
-23.35
-11.91
4.13
19.92
32.96
43.88
54.64
66.44
77.94
85.78
87.58
83.53
76.63
69.52
62.27
50.97
30.72
0.03
-36.91
-70.45
-91.41
-96.42
-89.78
-80.54
-75.99
-76.41
-74.22
-59.44
-26.29
21.67
73.45
116.51
143.79
157.36
164.98
173.89
184.44
189.08
176.83
141.34
87.29
29.47
-13.49
-29.39
-18.92
5.01
25.18
30.28
20.69
6.75
-0.43
3.09
10.74
10.07
-7.75
-41.34
-79.14
-107.44
-119.25
-118.89
-118.61
-130.50
-157.94
-192.98
-221.04
-228.59
-210.00
-168.99
-115.36
-59.53
-9.26
30.62
57.20
67.90
61.80
41.53
14.26
-9.89
-21.63
-16.26
4.45
33.58
62.25
83.37
94.17
96.29
94.12
92.05
92.47
94.08
92.92
84.13
65.61
39.44
11.01
-13.79
-33.04
-49.91
-70.63
-99.74
-136.25
-173.03
-200.76
-213.59
-211.79
-201.36
-189.68
-180.28
-170.02
-150.42
-112.08
-50.09
31.73
120.55
198.01
246.36
255.35
226.69
173.87
116.41
71.87
48.23
42.95
46.80
51.52
54.85
60.09
72.16
91.52
112.55
125.62
122.77
101.81
66.22
22.84
-22.19
-64.60
-101.54
-129.51
-144.64
-144.09
-128.33
-102.11
-71.83
-43.12
-18.09
4.49
26.71
48.92
67.92
78.57
75.85
58.03
27.14
-11.73
-52.33
-89.17
-118.44
-138.38
-148.20
-147.47
-135.27
-112.12
-80.94
-47.27
-18.34
0.54
8.09
8.35
8.11
13.78
27.71
46.96
65.04
74.98
73.66
62.91
49.24
41.18
46.03
67.36
102.47
142.91
175.79
188.17
172.30
129.72
71.89
16.00
-21.51
-31.49
-15.06
17.51
52.15
75.87
80.58
63.82
27.03
-25.14
-85.94
-146.53
-196.99
-227.98
-233.32
-212.35
-169.90
-115.11
-58.70
-10.88
20.90
33.09
26.07
4.82
-22.72
-47.16
-60.94
-60.79
-48.02
-27.53
-5.08
14.27
27.44
32.81
30.36
21.85
11.31
4.53
7.08
21.58
44.72
68.34
82.68
81.56
65.49
41.97
22.33
16.10
27.48
53.97
87.89
119.03
138.00
138.59
119.06
82.71
36.39
-10.76
-49.48
-72.41
-75.33
-58.24
-25.61
13.54
47.68
66.12
63.76
44.15
18.08
-1.91
-8.89
-5.70
-3.67
-14.92
-44.51
-86.25
-126.11
-150.36
-152.66
-137.00
-113.01
-89.02
-67.19
-44.52
-16.96
15.68
48.21
73.90
88.24
91.56
87.63
80.53
72.06
61.84
49.73
36.98
26.12
18.16
11.01
0.41
-17.13
-40.41
-62.45
-72.63
-62.71
-31.42
13.43
57.75
87.43
94.63
81.15
57.21
36.02
27.03
31.74
43.41
51.37
47.76
31.10
7.03
-16.27
-33.24
-43.32
-49.86
-56.23
-62.72
-66.24
-63.48
-54.12
-42.70
-37.10
-44.33
-66.29
-97.82
-128.23
-144.57
-136.98
-102.44
-46.12
19.98
81.22
125.12
145.02
141.73
122.28
96.70
74.12
59.74
53.50
51.38
47.22
35.70
14.84
-13.26
-42.12
-63.71
-71.45
-63.94
-46.16
-27.94
-19.07
-25.04
-44.48
-69.96
-91.51
-100.56
-93.63
-72.61
-42.94
-11.15
17.52
39.69
53.44
57.65
53.04
42.68
31.74
26.00
28.71
38.35
48.37
50.23
37.83
11.88
-18.96
-41.47
-43.48
-21.00
19.38
62.28
90.51
92.13
66.45
23.53
-20.71
-51.76
-63.41
-59.24
-49.82
-46.00
-52.94
-68.30
-84.72
-95.04
-96.29
-91.58
-87.56
-90.39
-101.97
-118.41
-131.67
-132.40
-113.69
-73.14
-14.36
53.88
119.87
172.10
202.96
210.80
200.38
179.73
157.32
138.25
123.40
110.89
97.74
83.15
69.16
59.73
57.97
63.80
73.25
80.31
80.53
73.40
62.63
53.16
47.66
44.79
39.92
28.06
6.47
-23.57
-58.06
-91.17
-116.78
-129.71
-126.59
-107.89
-79.22
-50.55
-31.86
-29.14
-40.59
-57.88
-71.09
-73.42
-65.18
-51.68
-38.95
-29.69
-22.42
-13.78
-2.08
10.57
19.61
20.97
13.85
0.74
-14.95
-30.93
-46.99
-63.39
-79.56
-93.47
-103.06
-107.51
-107.32
-103.68
-95.72
-80.56
-55.42
-21.55
13.79
38.89
43.45
24.62
-11.14
-50.80
-82.55
-101.18
-109.00
-111.72
-112.11
-107.43
-91.45
-60.46
-17.97
25.16
55.84
66.48
59.29
45.36
37.27
41.69
55.40
68.23
69.44
53.81
24.35
-10.93
-42.98
-66.31
-79.45
-83.05
-77.52
-61.25
-32.40
8.90
57.49
104.06
137.55
150.11
140.99
116.82
89.28
69.47
64.23
73.11
90.11
106.98
117.54
120.23
117.37
113.49
112.03
114.10
117.61
119.09
115.25
104.75
89.27
72.35
58.03
48.17
41.82
36.12
27.91
15.40
-2.33
-25.56
-55.04
-90.63
-130.28
-168.61
-197.35
-207.96
-195.12
-160.64
-113.21
-65.38
-27.77
-4.51
8.09
18.05
31.89
50.32
67.66
75.87
69.72
50.59
25.60
2.97
-11.99
-18.45
-18.39
-13.25
-2.25
16.49
42.92
73.37
100.45
115.96
114.13
93.95
59.46
18.74
-18.16
-42.29
-48.00
-35.35
-10.16
17.79
38.59
46.16
40.30
25.80
8.77
-6.83
-20.81
-36.09
-56.04
-81.73
-110.31
-136.17
-152.78
-155.12
-141.20
-112.92
-75.61
-37.22
-6.85
7.70
1.75
-24.25
-64.23
-107.38
-141.96
-158.95
-154.51
-130.53
-92.41
-47.29
-1.55
38.46
66.86
78.57
71.23
48.05
17.84
-6.89
-14.96
-0.77
33.62
80.44
130.00
173.54
204.86
218.74
210.56
177.22
120.91
51.00
-16.37
-62.65
-74.60
-49.87
0.88
58.86
104.41
124.33
115.56
84.67
44.03
6.23
-19.52
-30.88
-32.05
-30.76
-34.30
-45.40
-60.99
-74.13
-78.01
-70.04
-53.85
-37.72
-30.04
-35.35
-51.67
-72.15
-88.86
-96.86
-95.08
-84.83
-67.47
-42.22
-7.08
38.67
91.16
141.28
178.02
192.97
184.88
160.00
127.99
96.26
66.91
38.18
8.33
-20.26
-42.00
-52.00
-50.85
-45.87
-46.64
-58.57
-78.07
-94.20
-94.96
-76.00
-43.46
-10.56
10.11
13.71
4.13
-9.65
-20.94
-28.86
-37.45
-50.75
-68.33
-84.45
-90.98
-83.68
-64.53
-41.37
-23.42
-16.21
-19.06
-25.96
-29.61
-24.19
-7.89
18.12
49.88
82.09
108.93
124.45
123.80
104.20
66.79
15.63
-42.69
-101.00
-153.00
-193.16
-217.12
-220.52
-201.11
-159.68
-101.35
-35.10
27.95
77.57
107.25
114.95
103.73
79.37
48.47
16.41
-13.31
-38.77
-59.40
-74.98
-86.55
-95.39
-103.19
-110.21
-114.31
-110.76
-94.32
-62.93
-19.49
27.42
68.07
96.42
113.36
125.85
141.24
162.38
184.85
200.39
202.46
190.52
170.40
149.96
134.13
121.97
109.55
93.75
76.40
64.19
64.44
80.34
107.31
134.95
151.40
148.72
125.47
86.09
37.53
-14.28
-65.42
-113.79
-156.35
-187.53
-199.70
-186.60
-147.86
-91.10
-31.36
14.42
33.61
22.97
-10.65
-53.69
-91.18
-112.54
-113.81
-97.81
-71.30
-42.82
-20.65
-11.09
-17.11
-36.05
-60.29
-79.12
-83.34
-69.38
-41.30
-9.01
16.60
27.75
23.02
6.01
-17.56
-42.30
-63.55
-76.36
-74.80
-53.22
-9.97
50.57
117.34
175.92
213.26
222.11
203.34
165.41
121.91
86.84
70.69
76.15
96.67
118.17
124.07
103.15
54.92
-8.42
-67.02
-101.83
-103.16
-75.20
-33.28
2.05
13.80
-5.61
-51.86
-111.32
-166.37
