1638199180.00
64.000000
-0.00
-0.00
-0.00
-0.00
-0.00
-0.00
-0.00
-0.00
-0.00
-0.00
0.00
0.01
0.01
-0.00
-0.03
-0.05
-0.05
0.00
0.13
0.36
0.66
1.01
1.37
1.72
2.06
2.40
2.79
3.25
3.81
4.43
5.09
5.73
6.33
6.91
7.51
8.22
9.08
10.16
11.40
12.67
13.85
14.90
15.87
16.92
18.27
20.05
22.50
25.42
28.52
31.53
34.30
36.93
39.75
43.20
47.58
53.28
59.91
66.97
73.89
80.34
86.44
92.69
99.81
108.30
118.67
130.40
142.69
154.66
165.85
176.36
186.87
198.73
210.61
224.68
241.50
261.13
282.38
302.44
317.07
321.69
312.96
289.97
255.01
211.82
164.60
116.52
69.10
22.71
-22.60
-66.41
-107.87
-146.16
-181.58
-215.29
-248.73
-282.38
-315.38
-345.95
-371.70
-390.87
-402.50
-406.22
-402.37
-391.68
-375.34
-354.87
-332.11
-308.29
-283.75
-257.72
-229.38
-199.30
-169.26
-142.12
-120.24
-104.81
-95.44
-90.57
-88.46
-87.06
-84.63
-79.57
-71.11
-59.68
-46.22
-31.62
-16.06
0.66
18.76
36.78
52.45
63.91
71.11
76.59
83.44
92.84
101.74
104.49
96.12
76.52
51.48
30.04
20.07
23.09
34.64
47.08
54.58
55.73
52.76
48.56
43.24
34.48
19.09
-3.04
-27.78
-48.28
-58.65
-57.39
-48.36
-39.05
-35.91
-41.51
-52.67
-62.42
-63.27
-51.81
-30.56
-7.03
9.91
14.62
7.49
-5.24
-15.20
-16.67
-9.06
3.07
13.50
18.04
16.89
14.06
14.62
21.40
33.09
45.45
53.23
53.27
45.89
34.88
25.26
20.92
22.36
26.19
26.88
19.05
0.29
-28.26
-62.24
-96.56
-127.08
-151.90
-170.99
-185.30
-195.44
-200.72
-199.26
-188.89
-168.47
-138.43
-100.68
-57.97
-12.80
32.96
78.54
123.64
167.94
210.54
249.89
283.43
309.01
325.31
332.10
330.18
321.14
306.92
289.22
269.28
247.68
224.48
199.60
173.18
145.79
118.39
92.05
67.42
44.57
23.37
3.05
-17.49
-39.46
-64.21
-93.11
-127.05
-165.70
-206.67
-245.47
-276.73
-295.96
-301.28
-294.21
-278.60
-258.81
-238.11
-217.98
-198.96
-181.82
-168.30
-159.92
-158.21
-163.56
-174.73
-189.56
-205.65
-221.38
-236.06
-249.55
-261.71
-272.12
-279.94
-284.10
-284.53
-281.03
-273.65
-262.66
-248.44
-231.35
-211.79
-190.09
-166.55
-141.51
-115.20
-87.81
-59.54
-30.40
-0.50
29.86
60.08
89.55
117.53
143.58
167.61
189.61
210.30
230.60
251.97
275.60
301.73
329.13
354.65
374.39
384.68
383.68
371.71
351.01
324.64
295.59
266.51
239.31
215.44
195.43
179.23
165.80
153.87
142.25
130.13
117.40
104.00
90.18
76.03
62.38
50.18
40.56
34.08
30.08
27.37
24.42
20.77
16.47
12.21
8.56
5.66
3.69
2.78
3.02
4.10
5.36
5.55
3.65
-0.41
-5.74
-10.67
-13.96
-15.21
-15.21
-14.83
-14.63
-14.52
-14.20
-13.77
-13.71
-14.78
-17.04
-19.83
-21.61
-21.28
-18.44
-14.00
-9.87
-7.62
-8.30
-11.34
-15.51
-19.22
-21.42
-21.44
-19.33
-15.55
-10.86
-6.34
-3.22
-2.42
-4.19
-7.87
-11.44
-13.18
-11.95
-8.05
-3.32
0.48
1.69
0.32
-2.77
-6.25
-8.94
-10.26
-9.82
-7.81
-4.28
0.09
4.15
6.72
7.05
5.31
2.59
0.16
-1.45
-2.45
-3.71
-5.54
-7.45
-8.23
-6.81
-3.43
0.58
2.91
2.57
-0.39
-4.12
-6.59
-6.74
-4.77
-2.24
-0.55
-0.71
-2.44
-5.08
-7.68
-9.38
-9.90
-8.77
-6.34
-3.16
-0.53
0.56
-0.52
-3.32
-6.45
-8.64
-9.01
-7.83
-5.94
-4.37
-3.78
-4.30
-5.73
-7.57
-9.52
-10.89
-11.55
-11.13
-9.87
-7.94
-5.57
-2.93
0.10
3.15
6.18
8.42
9.62
9.59
8.48
6.85
4.77
2.50
0.24
-1.35
-1.49
0.37
3.94
8.12
11.31
12.32
10.89
7.86
4.82
2.77
2.02
1.68
0.56
-1.68
-4.67
-7.32
-8.69
-8.57
-7.51
-6.30
-5.42
-4.80
-3.69
-2.00
0.11
1.62
1.59
-0.10
-2.77
-5.44
-7.11
-7.62
-7.54
-7.22
-7.09
-6.92
-6.29
-4.84
-2.74
-0.69
0.41
-0.03
-1.43
-2.80
-2.91
-1.22
1.76
4.74
6.29
5.87
3.72
1.08
-1.05
-1.99
-1.78
-0.96
-0.06
0.37
0.19
-0.72
-1.80
-2.68
-2.53
-1.10
1.07
3.00
3.32
1.48
-2.12
-6.06
-9.08
-10.03
-8.81
-5.70
-0.88
4.84
10.54
14.38
14.56
10.14
1.85
-7.59
-14.77
-16.80
-13.15
-5.41
2.93
8.78
10.25
7.61
2.71
-2.53
-6.55
-9.15
-10.37
-10.76
-10.26
-8.71
-5.86
-2.04
1.78
4.38
4.52
2.44
-0.99
-3.89
-4.48
-2.10
2.52
7.52
10.99
11.77
10.26
7.52
5.10
3.53
2.50
1.22
-0.70
-2.61
-3.71
-3.03
-0.78
1.95
3.62
3.19
0.65
-3.03
-6.04
-7.36
-6.31
-3.54
0.05
3.20
5.18
5.82
5.38
4.45
3.31
2.52
1.94
1.67
1.49
1.32
1.15
0.66
-0.24
-1.87
-3.93
-6.17
-7.65
-7.86
-6.84
-4.99
-3.12
-1.62
-0.70
-0.02
0.09
-0.77
-2.79
-5.57
-7.62
-7.46
-4.24
1.05
6.66
10.30
11.08
9.65
7.19
4.92
2.95
1.01
-1.04
-2.44
-2.20
0.26
4.50
8.94
12.13
12.90
11.33
7.76
3.13
-1.52
-5.11
-6.69
-6.36
-4.72
-3.44
-3.83
-6.44
-10.27
-13.27
-13.54
-10.38
-4.91
0.95
4.86
5.69
3.43
-1.09
-6.67
-12.15
-16.39
-18.16
-16.19
-10.24
-1.08
9.08
17.24
21.24
20.42
16.42
11.49
7.80
5.69
4.30
2.56
-0.07
-2.65
-3.86
-2.54
1.01
5.52
8.99
9.98
8.11
4.10
-0.38
-3.98
-5.70
-5.59
-4.15
-2.14
-0.02
2.06
3.87
5.14
4.93
2.81
-1.15
-5.78
-9.22
-10.19
-8.48
-5.49
-2.99
-2.52
-4.45
-8.21
-12.58
-16.50
-18.98
-19.04
-16.15
-10.12
-2.36
4.83
8.74
8.03
3.57
-2.01
-5.79
-6.46
-4.78
-3.00
-2.48
-3.03
-2.77
0.09
5.51
11.50
14.95
13.98
9.11
3.22
-0.35
0.42
4.88
10.35
13.80
13.32
9.59
4.90
2.03
2.47
5.62
9.14
10.23
7.75
2.57
-2.44
-4.47
-2.25
2.93
8.08
10.16
7.61
1.39
-6.34
-13.03
-17.24
-18.74
-18.09
-15.58
-11.35
-5.36
1.78
8.20
12.01
11.51
6.69
-0.80
-8.42
-13.57
-14.90
-12.57
-8.02
-2.57
2.42
6.44
9.29
10.73
10.71
9.15
6.46
3.32
0.78
-0.55
-0.54
0.23
0.71
0.04
-2.04
-4.62
-6.54
-6.40
-4.23
-1.04
1.48
1.82
-0.05
-3.18
-5.65
-6.13
-4.44
-1.69
0.70
1.72
1.15
-0.14
-1.44
-2.08
-2.12
-1.78
-1.39
-0.93
-0.43
0.08
0.73
1.40
2.28
3.27
4.48
5.77
7.01
8.21
9.36
10.64
11.65
11.92
10.74
8.06
4.53
1.17
-1.06
-2.07
-2.37
-2.93
-3.97
-4.98
-4.89
-3.21
-0.54
1.50
1.10
-1.89
-6.25
-9.43
-9.82
-7.48
-4.25
-2.53
-3.25
-5.56
-6.99
-5.65
-1.25
4.22
8.24
9.22
7.27
4.22
1.60
0.01
-1.25
-3.14
-5.71
-8.07
-8.84
-7.36
-4.06
-0.40
2.54
4.10
4.79
5.37
6.06
6.65
6.42
5.08
2.71
-0.05
-2.59
-4.31
-4.83
-3.94
-1.57
1.90
5.99
9.78
12.51
13.35
11.60
7.02
-0.25
-8.99
-17.45
-23.49
-25.43
-22.54
-15.69
-6.62
2.33
8.94
12.03
10.99
6.76
1.05
-3.96
-6.69
-6.67
-4.65
-1.98
0.44
2.01
2.64
2.04
-0.21
-4.26
-9.15
-12.81
-12.91
-8.10
0.50
9.85
16.21
17.04
12.35
4.40
-3.45
-8.50
-9.32
-6.44
-1.16
4.83
9.75
12.51
12.28
9.17
3.98
-1.78
-6.47
-8.80
-8.51
-6.29
-3.37
-1.04
0.26
0.68
0.92
1.09
0.93
-0.34
-3.11
-6.83
-10.50
-12.60
-12.38
-9.65
-5.40
-1.12
1.91
2.83
1.93
-0.16
-2.29
-3.49
-3.18
-1.17
2.19
5.98
8.96
9.97
8.26
4.29
-0.64
-4.45
-5.57
-3.54
0.79
5.55
8.87
9.63
7.98
4.98
2.06
0.21
-0.33
0.07
0.65
0.99
0.72
-0.01
-1.10
-2.24
-3.30
-3.98
-3.92
-2.97
-0.93
1.88
4.78
6.71
7.16
6.11
4.25
2.37
1.01
0.21
-0.37
-0.79
-1.03
-0.36
1.43
3.99
6.25
6.85
5.14
1.35
-2.89
-5.92
-6.32
-3.69
0.80
5.55
8.67
9.09
6.64
2.47
-2.07
-5.56
-7.18
-6.91
-5.24
-3.19
-1.45
-0.68
-0.70
-1.29
-1.89
-2.06
-1.68
-0.90
-0.30
-0.19
-0.87
-2.04
-3.29
-4.11
-4.34
-4.01
-3.10
-1.76
0.11
2.12
3.78
4.56
4.20
2.87
0.97
-1.03
-3.03
-4.81
-6.21
-6.67
-5.62
-2.98
0.61
3.68
5.06
4.19
1.91
-0.42
-1.47
-0.91
0.68
2.49
3.62
4.02
3.67
3.20
2.98
3.43
4.75
6.59
8.68
10.03
10.13
8.72
6.30
3.73
1.82
0.89
0.51
0.22
-0.72
-2.28
-4.30
-6.54
-8.68
-10.42
-11.37
-11.29
-9.92
-7.54
-4.40
-1.11
1.85
4.18
5.82
6.84
6.79
5.41
2.44
-1.64
-5.61
-8.14
-8.24
-5.98
-2.52
-0.03
0.03
-2.90
-7.51
-11.54
-12.91
-10.71
-5.95
-0.57
3.26
4.47
3.29
1.21
-0.26
0.18
2.89
7.36
12.76
17.74
21.22
22.07
19.98
15.37
9.26
3.05
-2.26
-5.97
-7.99
-8.36
-7.62
-5.85
-3.23
-0.18
3.05
5.60
7.25
7.75
7.50
6.80
5.91
4.80
3.27
1.18
-1.49
-4.37
-7.27
-9.72
-11.54
-12.38
-11.97
-10.03
-6.61
-2.63
0.56
1.37
-0.62
-4.46
-7.88
-8.60
-5.85
-0.73
3.65
4.51
0.68
-6.46
-13.61
-17.58
-16.50
-10.85
-2.71
5.33
11.59
15.32
16.80
16.37
14.07
9.89
4.20
-1.91
-7.03
-9.73
-9.62
-7.05
-3.24
0.64
3.78
5.61
6.14
5.21
3.31
1.08
-0.59
-0.77
0.73
3.13
4.92
4.66
1.70
-3.19
-8.49
-12.53
-14.32
-13.60
-10.41
-5.32
0.88
6.68
10.37
10.66
7.62
2.28
-3.60
-8.53
-11.84
-13.06
-11.94
-7.85
-0.70
8.48
17.21
22.20
21.26
14.33
3.93
-6.46
-13.63
-16.40
-15.40
-12.51
-9.92
-8.91
-10.01
-12.23
-14.13
-14.07
-11.59
-7.70
-4.30
-3.20
-4.47
-6.37
-5.89
-1.34
6.63
14.49
18.20
15.78
8.64
1.27
-1.89
1.57
10.00
19.18
24.54
23.53
16.93
7.65
-0.92
-6.98
-10.35
-12.33
-13.87
-15.04
-14.99
-12.67
-7.89
-1.41
5.08
9.94
12.00
11.10
7.87
3.45
-0.82
-4.15
-5.70
-5.50
-3.86
-1.69
0.11
1.22
1.63
2.09
3.13
5.15
7.70
10.05
11.42
11.61
10.83
9.51
8.22
6.83
5.42
3.84
2.78
3.29
6.38
12.05
18.63
23.29
23.53
19.01
11.74
5.58
3.66
6.56
12.08
16.36
16.63
12.16
4.63
-3.45
-10.08
-14.61
-17.40
-18.84
-19.52
-19.88
-20.95
-23.31
-26.84
-30.06
-30.87
-28.23
-22.93
-17.91
-15.92
-18.13
-22.82
-26.51
-25.83
-19.74
-9.90
0.54
8.56
13.24
15.09
15.33
14.37
11.84
7.16
0.71
-5.65
-9.69
-9.50
-5.04
1.99
8.69
12.27
11.44
6.50
-0.18
-5.76
-7.24
-3.28
5.34
15.74
24.00
27.07
23.91
16.46
7.98
1.58
-1.69
-2.63
-3.06
-4.60
-7.66
-11.59
-14.94
-16.88
-16.75
-14.60
-10.44
-4.20
4.00
13.65
23.20
31.00
35.25
35.68
33.76
32.27
34.20
40.29
48.80
55.51
56.20
48.54
33.82
16.00
-0.62
-13.48
-22.82
-30.52
-38.56
-46.96
-54.20
-58.15
-57.68
-53.28
-46.31
-38.16
-29.41
-20.32
-11.32
-4.01
0.11
0.49
-2.06
-5.10
-6.93
-6.86
-5.92
-5.38
-5.65
-5.54
-3.47
0.71
5.45
7.70
5.36
-1.02
-8.17
-12.48
-11.86
-7.54
-3.08
-1.71
-4.39
-8.80
-11.16
-8.18
0.40
12.22
23.28
30.13
31.94
29.90
26.86
25.25
26.45
30.10
34.63
37.81
37.50
32.87
24.19
13.60
3.76
-2.61
-4.12
-1.47
2.46
4.01
0.85
-7.31
-17.74
-26.81
-31.51
-31.31
-27.80
-23.15
-18.61
-13.00
-4.55
7.84
22.17
33.70
37.10
29.95
14.83
-1.67
-11.90
-11.79
-2.20
11.47
23.06
28.77
28.68
25.24
20.20
13.43
2.60
-13.53
-33.23
-50.71
-58.71
-52.43
-32.64
-6.32
17.04
29.22
27.80
16.14
1.49
-9.26
-12.81
-10.13
-5.38
-2.48
-3.81
-8.55
-14.33
-18.53
-19.87
-18.60
-15.86
-13.15
-10.61
-7.61
-2.79
4.29
12.67
20.00
23.48
22.21
17.50
12.83
11.05
13.34
17.83
21.07
20.10
14.03
4.78
-5.31
-14.24
-22.32
-30.89
-41.14
-52.53
-62.51
-68.12
-66.69
-57.97
-43.78
-27.96
-13.94
-3.80
2.46
6.92
11.69
17.60
23.30
26.65
25.72
20.72
14.10
9.31
9.00
13.17
19.74
25.44
28.46
28.63
27.55
27.03
27.30
27.31
24.92
18.72
8.71
-2.78
-12.48
-17.44
-16.40
-10.58
-2.59
4.34
8.21
8.47
6.01
2.41
-0.78
-2.83
-3.98
-4.79
-6.01
-7.80
-10.14
-12.45
-14.25
-14.74
-13.13
-9.39
-4.00
1.54
5.86
7.94
8.03
7.51
7.92
10.08
13.21
15.58
15.15
11.73
6.73
2.80
1.83
3.71
6.26
6.60
3.35
-2.75
-8.83
-12.00
-10.62
-5.44
1.00
5.66
6.38
3.34
-1.71
-5.86
-6.95
-4.46
0.28
4.86
7.26
6.52
3.16
-1.69
-6.72
-11.37
-15.27
-18.00
-18.70
-16.23
-10.44
-2.45
4.91
8.99
8.50
4.60
0.35
-0.71
3.62
13.01
25.03
35.84
42.57
43.98
40.87
35.15
28.60
22.39
16.76
12.13
8.57
6.44
5.55
5.35
4.96
3.43
0.55
-3.57
-7.99
-12.17
-16.09
-20.80
-27.82
-38.15
-51.63
-66.54
-80.61
-91.27
-97.07
-96.99
-90.62
-77.64
-58.04
-33.18
-6.08
18.44
35.81
43.47
42.41
36.38
29.58
24.89
22.21
19.87
15.93
10.36
4.77
1.59
2.29
6.26
11.33
14.97
15.68
13.68
10.58
7.94
6.88
7.22
8.01
8.62
8.72
8.85
9.36
10.29
10.60
9.22
5.56
0.20
-5.33
-9.41
-10.82
-9.69
-6.99
-4.17
-2.34
-1.56
-1.31
-0.57
1.27
4.30
7.96
11.86
15.58
19.22
22.52
24.56
23.84
18.44
7.91
-6.32
-20.33
-29.28
-29.72
-21.43
-8.11
4.80
12.23
12.44
6.85
-0.79
-6.98
-10.13
-10.41
-9.14
-6.93
-3.80
0.76
6.58
12.58
16.76
17.43
14.32
8.64
3.35
1.03
3.26
9.22
16.29
20.96
20.69
15.07
5.69
-4.29
-12.29
-16.81
-17.69
-15.64
-11.37
-5.48
1.42
7.98
12.71
14.03
11.75
6.85
1.07
-3.79
-6.72
-7.66
-7.52
-7.34
-8.18
-10.23
-12.61
-13.81
-12.22
-7.32
0.15
7.94
14.02
16.93
17.09
15.66
13.81
12.10
10.48
8.96
7.95
8.51
10.75
13.98
16.29
15.79
12.20
6.42
0.84
-2.58
-2.71
0.09
4.86
10.33
15.46
19.71
22.22
22.52
20.00
14.61
6.15
-5.08
-18.54
-33.04
-46.41
-56.58
-61.66
-61.24
-56.11
-48.26
-39.52
-31.01
-23.10
-15.31
-7.81
-0.84
4.67
7.79
8.13
5.93
2.19
-1.64
-3.85
-3.60
-0.82
3.16
6.44
7.19
4.52
-0.90
-7.47
-13.05
-16.60
-18.10
-18.72
-19.33
-19.77
-18.42
-12.93
-1.97
13.67
30.50
44.11
51.27
52.16
50.68
52.35
61.55
78.56
99.19
116.44
123.87
117.54
97.35
66.03
27.38
-14.38
-55.46
-91.95
-120.29
-137.76
-143.53
-139.04
-126.98
-110.54
-91.87
-71.89
-50.65
-28.62
-6.85
12.45
26.73
33.83
32.82
24.59
11.97
-0.80
-9.75
-12.40
-9.15
-2.77
2.86
4.79
2.62
-1.61
-4.65
-4.33
-0.32
5.72
11.68
16.20
19.05
20.73
21.53
21.06
18.54
13.55
6.40
-1.43
-7.81
-10.75
-8.97
-2.50
7.26
17.52
25.22
27.42
23.08
13.57
2.37
-6.00
-8.54
-4.85
2.34
9.20
12.57
12.22
10.56
10.70
14.65
21.20
26.88
27.62
21.83
11.25
0.31
-6.48
-7.29
-3.29
2.05
5.71
6.46
5.57
4.80
5.45
7.11
8.01
6.44
1.54
-5.77
-13.79
-20.14
-23.33
-22.68
-18.60
-12.66
-6.28
-0.97
2.68
4.27
3.82
1.11
-3.58
-8.98
-13.06
-13.39
-9.32
-2.28
3.96
5.31
-0.63
-12.86
-27.22
-38.48
-42.29
-37.51
-25.70
-10.43
4.85
17.32
25.42
28.48
26.26
19.66
10.08
0.11
-7.70
-11.59
-11.46
-8.61
-4.74
-1.24
1.78
4.39
6.63
7.49
6.06
2.58
-1.00
-1.41
3.71
14.34
27.02
37.00
40.40
36.36
27.17
16.79
8.37
2.70
-0.91
-3.99
-6.75
-8.42
-7.96
-5.27
-1.65
0.93
0.63
-2.39
-6.75
-10.10
-10.83
-8.79
-5.23
-2.08
-0.58
-1.18
-3.04
-5.27
-7.04
-8.00
-8.06
-6.77
-3.81
1.20
7.88
15.14
20.90
23.31
21.38
15.74
8.90
3.62
1.79
3.14
5.49
5.45
1.00
-7.48
-17.05
-23.44
-23.80
-17.84
-8.30
0.90
6.59
8.01
6.32
3.62
1.69
0.60
-0.35
-2.17
-5.06
-8.32
-10.82
-11.65
-10.76
-8.69
-6.41
-4.80
-4.58
-6.07
-9.24
-13.17
-16.67
-18.41
-17.24
-13.21
-7.27
-1.23
3.04
4.61
3.93
2.61
2.43
4.27
7.54
11.00
13.02
13.24
12.50
12.33
13.79
16.51
18.94
19.32
17.18
13.27
9.28
6.20
3.82
0.79
-4.21
-11.16
-18.75
-24.45
-26.71
-25.34
-21.75
-17.79
-14.60
-12.25
-10.34
-8.88
-8.01
-8.33
-9.28
-9.80
-8.32
-4.00
2.12
7.99
10.78
9.34
4.13
-2.30
-7.31
-9.04
-7.25
-3.31
1.46
5.74
9.10
11.47
13.16
14.23
14.81
15.02
14.73
14.06
12.53
9.96
6.49
2.96
0.37
-0.81
-0.89
-1.17
-2.20
-4.00
-4.89
-3.49
0.61
5.96
9.88
10.39
7.11
2.41
-1.01
-0.75
3.17
8.73
13.44
15.38
14.22
10.70
6.28
1.72
-2.17
-5.18
-7.27
-8.33
-8.76
-9.04
-9.86
-11.08
-12.45
-12.96
-12.04
-9.73
-6.31
-2.46
1.76
5.96
10.08
13.27
14.74
13.49
8.93
1.66
-7.10
-15.08
-20.55
-22.39
-21.07
-17.87
-14.38
-11.67
-9.55
-7.48
-4.49
-0.57
3.40
5.71
5.28
2.44
-1.07
-2.85
-1.69
2.19
6.63
9.41
9.16
6.56
3.57
2.03
2.80
4.74
6.30
5.72
2.81
-1.58
-5.66
-7.89
-7.61
-5.07
-1.53
1.85
3.96
4.59
4.17
3.48
3.15
3.65
5.11
6.88
8.24
8.08
6.16
3.03
0.11
-1.14
-0.16
2.50
4.93
5.45
3.08
-1.49
-6.53
-10.29
-11.98
-12.28
-12.63
-13.96
-15.64
-16.19
-13.77
-8.07
-0.33
6.94
11.25
11.42
8.11
3.82
0.86
0.82
3.06
5.66
6.53
4.73
1.33
-1.51
-1.32
2.65
9.58
16.88
21.79
22.37
18.40
11.58
4.23
-1.39
-4.68
-5.85
-6.37
-7.29
-8.78
-10.17
-10.03
-7.78
-3.61
0.59
2.91
1.84
-2.56
-8.57
-14.18
-17.60
-18.53
-17.27
-14.63
-10.99
-6.61
-1.81
2.76
6.11
7.35
5.87
2.25
-2.44
-6.64
-9.03
-9.06
-6.73
-2.82
1.88
6.04
8.52
8.16
4.57
-1.37
-7.76
-11.79
-11.14
-4.72
6.13
18.38
27.99
32.28
31.20
27.19
23.87
23.17
24.72
25.83
24.09
18.76
11.82
6.07
3.40
3.36
3.47
1.57
-2.81
-7.52
-9.86
-8.34
-3.94
0.72
3.28
2.98
1.13
-0.63
-1.55
-2.55
-4.94
-9.28
-14.43
-17.59
-16.49
-10.19
-0.28
9.88
16.72
18.05
13.81
5.98
-2.24
-8.14
-9.96
-8.26
-4.64
-1.50
-0.56
-2.24
-5.92
-9.91
-12.91
-14.03
-13.52
-12.12
-10.74
-9.82
-9.03
-7.52
-4.47
-0.09
4.85
8.66
10.08
8.78
5.54
1.86
-0.99
-2.17
-1.86
-0.51
0.84
1.58
1.04
-0.99
-4.05
-7.57
-10.38
-12.22
-12.77
-12.60
-11.94
-10.73
-8.84
-6.17
-3.12
-0.45
0.91
1.08
0.52
0.29
0.92
2.32
3.89
5.09
5.98
6.60
7.35
7.90
7.66
6.31
4.01
1.87
0.85
1.70
3.68
5.49
5.57
3.35
-0.25
-3.48
-4.27
-1.99
2.67
7.64
10.88
11.09
8.08
2.87
-3.42
-9.38
-13.98
-16.07
-15.00
-10.54
-4.06
2.17
5.57
4.75
0.57
-4.81
-8.79
-10.25
-9.82
-8.91
-8.54
-8.11
-6.36
-2.37
3.03
7.98
10.27
9.48
6.87
4.42
3.42
3.10
1.84
-1.64
-6.53
-10.53
-11.12
-7.59
-1.54
3.97
6.23
4.74
0.69
-3.37
-5.90
-6.61
-6.26
-6.00
-5.85
-5.28
-3.27
0.49
5.22
9.41
11.65
11.33
8.95
5.82
2.96
1.35
1.18
2.30
4.05
5.49
5.71
4.20
1.39
-1.39
-2.37
-0.93
2.42
5.47
6.16
3.82
-0.44
-4.01
-4.82
-2.33
2.08
6.16
8.20
7.65
5.13
1.81
-1.43
-4.16
-6.21
-7.81
-8.98
-9.54
-9.21
-7.72
-5.18
-2.24
-0.15
-0.02
-2.29
-5.90
-9.10
-9.88
-7.35
-2.61
2.23
4.53
3.46
-0.20
-3.95
-5.45
-3.42
1.77
8.57
15.09
19.87
22.43
22.88
21.72
19.42
16.28
12.75
9.12
5.79
2.91
0.60
-1.52
-3.26
-4.47
-4.57
-3.56
-1.93
-0.61
-0.76
-2.66
-5.91
-9.38
-12.07
-13.64
-14.57
-15.77
-17.45
-19.45
-20.67
-20.43
-18.56
-15.76
-12.91
-10.58
-8.50
-5.95
-2.72
0.74
3.28
3.92
2.55
0.28
-1.02
-0.10
3.45
8.41
13.45
17.75
21.61
25.78
30.07
33.42
33.61
29.28
20.77
10.83
3.01
0.01
2.03
6.76
10.91
12.09
10.19
6.72
3.74
1.95
0.71
-1.42
-5.45
-10.79
-16.02
-19.74
-21.51
-22.02
-22.50
-23.51
-24.23
-22.99
-18.51
-10.96
-1.97
5.69
9.83
9.75
6.40
1.78
-2.09
-3.60
-2.24
1.88
7.71
14.13
19.70
23.07
23.25
19.99
13.68
5.48
-2.67
-9.10
-12.76
-13.60
-12.28
-10.01
-7.64
-5.44
-3.44
-1.61
-0.54
-0.94
-3.19
-6.55
-9.47
-10.71
-10.12
-9.22
-9.84
-12.96
-17.89
-22.58
-25.00
-24.07
-20.29
-15.01
-9.58
-4.41
0.18
4.40
7.95
10.73
12.80
14.56
16.70
19.46
22.96
26.44
28.95
29.32
26.58
20.57
12.01
3.00
-4.30
-7.84
-7.35
-3.85
0.59
4.08
5.26
3.75
0.13
-4.69
-9.25
-12.25
-12.31
-9.54
-5.36
-1.89
-1.13
-3.34
-7.32
-10.68
-11.91
-10.68
-7.97
-5.23
-3.04
-1.33
0.44
2.09
3.01
2.21
-0.56
-4.49
-8.31
-10.63
-10.93
-9.48
-7.40
-5.55
-4.92
-5.75
-7.76
-10.04
-11.10
-10.05
-6.58
-1.82
2.74
5.76
7.19
8.16
10.15
14.15
19.32
23.99
26.25
25.52
22.20
17.51
12.47
7.36
2.35
-2.48
-6.74
-9.89
-11.45
-11.69
-10.89
-9.44
-7.52
-4.91
-1.98
0.66
2.21
2.43
1.99
2.27
4.56
8.98
14.40
18.70
20.20
18.20
13.52
7.96
3.54
1.35
1.01
1.40
1.16
-0.13
-1.82
-2.58
-1.83
-0.11
0.56
-1.93
-7.73
-14.94
-19.61
-18.69
-11.60
-1.18
8.12
12.28
10.24
4.31
-1.74
-4.38
-2.39
3.37
10.34
15.83
18.37
17.52
14.30
9.84
5.66
2.34
-0.24
-2.95
-6.59
-11.18
-16.06
-19.43
-20.05
-17.26
-12.21
-6.89
-3.38
-2.75
-4.21
-6.18
-6.89
-5.76
-3.37
-1.29
-0.89
-2.57
-5.55
-8.31
-9.65
-8.82
-6.29
-3.24
-1.22
-1.29
-3.77
-8.06
-12.60
-15.85
-16.73
-15.68
-13.76
-12.36
-11.95
-11.81
-10.69
-7.50
-2.61
2.66
6.33
7.41
6.20
4.24
3.12
3.50
4.84
6.06
6.82
7.58
9.78
14.15
20.38
26.59
30.54
30.79
27.39
22.05
16.29
11.12
6.15
0.46
-6.27
-13.32
-18.97
-21.52
-20.14
-15.42
-9.00
-3.22
0.29
0.75
-1.35
-4.22
-5.99
-5.04
-1.37
3.81
8.33
10.20
8.99
5.73
2.50
0.78
1.00
2.18
3.07
2.71
1.45
0.56
1.01
2.93
5.02
5.22
2.15
-3.62
-10.33
-15.12
-16.20
-13.55
-8.71
-4.22
-1.43
-0.32
0.79
3.34
7.36
11.60
14.11
14.08
12.09
9.78
8.30
7.57
6.75
5.21
2.98
1.07
0.49
1.26
2.79
3.87
4.21
4.30
5.24
7.13
8.76
8.31
4.38
-2.28
-9.56
-14.36
-14.81
-11.00
-4.95
0.24
2.46
0.92
-3.28
-8.34
-12.19
-13.71
-12.54
-8.63
-2.32
5.89
14.54
21.75
24.87
22.50
14.86
4.16
-5.86
-12.22
-13.12
-9.33
-2.58
4.51
10.16
13.20
13.20
10.55
5.77
-0.06
-6.00
-10.99
-14.43
-16.10
-16.10
-14.82
-12.66
-10.48
-8.78
-8.10
-8.36
-9.07
-9.71
-9.76
-9.48
-9.32
-9.95
-11.09
-12.20
-12.34
-10.75
-7.63
-3.88
-0.78
0.94
1.35
1.53
2.57
5.06
8.47
11.60
12.91
11.67
8.26
4.00
0.54
-1.37
-1.50
-0.38
1.49
3.69
5.93
8.11
9.97
11.57
12.86
14.06
14.89
15.21
14.84
13.72
11.83
8.88
4.83
-0.30
-5.64
-9.77
-10.64
-6.77
1.88
13.41
23.94
29.67
28.27
20.31
8.51
-3.06
-11.10
-14.38
-13.35
-9.66
-4.76
0.49
5.98
10.82
13.36
11.79
5.19
-5.16
-16.25
-24.19
-26.93
-24.38
-18.68
-13.03
-9.93
-10.33
-13.43
-17.62
-20.61
-21.05
-18.45
-13.37
-7.09
-1.13
3.32
5.88
6.39
5.38
3.07
0.11
-2.66
-4.15
-3.69
-1.69
0.81
1.91
0.60
-2.86
-6.49
-8.12
-6.20
-0.66
6.87
14.03
18.57
19.24
15.98
10.04
3.56
-1.20
-2.37
0.73
7.44
15.88
23.91
29.38
31.44
30.58
28.20
25.78
23.70
21.12
16.54
9.23
-0.41
-10.52
-18.59
-22.48
-21.53
-16.89
-10.79
-6.14
-5.07
-8.52
-15.44
-23.48
-29.57
-31.10
-27.08
-18.55
-8.58
-0.47
3.37
2.59
-1.62
-7.16
-11.87
-14.57
-14.46
-11.68
-6.73
-0.83
4.44
7.30
6.64
2.49
-3.77
-9.61
-12.78
-11.89
-7.38
-1.09
4.50
7.44
6.78
2.48
-4.51
-13.18
-21.75
-28.08
-29.50
-23.96
-11.24
6.29
23.48
35.01
36.91
29.35
16.05
2.62
-5.76
-6.98
-1.93
6.09
13.75
18.52
19.90
18.42
15.35
12.04
9.38
7.65
6.47
5.81
5.54
6.14
8.00
11.00
14.23
15.99
14.80
9.81
2.07
-6.57
-13.65
-17.21
-16.90
-13.50
-9.10
-5.60
-4.26
-4.72
-5.40
-4.17
0.24
7.27
14.88
19.98
20.65
16.43
8.77
-0.46
-9.55
-17.31
-23.44
-27.28
-28.40
-26.46
-21.72
-14.97
-7.51
-0.39
5.67
9.73
11.30
9.84
5.73
0.33
-4.22
-6.04
-4.33
0.27
5.80
10.17
11.94
11.14
8.60
5.64
3.34
2.13
1.99
2.56
3.87
6.06
9.08
12.33
14.35
13.57
8.95
0.95
-8.42
-15.96
-19.18
-17.33
-11.84
-5.85
-2.20
-2.12
-4.70
-7.83
-9.23
-8.20
-5.86
-4.03
-4.06
-5.86
-8.01
-8.73
-7.47
-4.84
-2.69
-2.25
-3.65
-5.44
-6.01
-4.39
-1.09
2.23
4.29
4.52
3.93
3.91
5.34
8.30
11.80
14.70
16.36
16.84
16.27
15.14
13.44
11.05
7.81
3.61
-1.47
-7.13
-12.57
-16.62
-17.87
-15.41
-9.75
-2.81
2.60
4.47
2.38
-1.73
-5.55
-7.12
-6.44
-4.80
-3.51
-3.23
-2.92
-1.38
2.00
6.23
9.44
9.62
6.25
0.43
-5.55
-9.19
-9.63
-6.84
-2.05
3.56
9.01
13.67
17.13
19.18
19.91
19.55
18.78
17.93
17.49
17.20
16.39
14.49
11.05
6.57
1.58
-3.03
-6.78
-9.63
-11.88
-13.97
-16.40
-19.74
-23.71
-27.74
-30.32
-30.55
-27.99
-23.03
-16.76
-10.22
-4.42
0.33
3.48
4.96
4.39
2.14
-0.92
-3.66
-4.60
-3.72
-1.59
0.02
-0.27
-3.14
-7.97
-13.27
-17.80
-20.50
-21.29
-20.17
-17.19
-11.84
-3.71
6.75
17.97
26.98
31.24
29.61
23.56
15.98
10.27
8.06
9.08
11.67
13.87
15.12
15.37
15.13
14.09
11.17
5.35
-3.41
-13.18
-21.23
-24.85
-23.36
-17.74
-10.25
-3.09
3.14
8.77
14.42
19.55
22.72
21.72
15.76
5.87
-4.97
-13.51
-17.83
-17.55
-14.11
-8.79
-2.92
3.01
8.26
11.50
11.53
7.69
1.08
-5.87
-10.06
-9.87
-5.31
1.89
9.07
13.83
14.27
10.01
2.22
-6.24
-11.91
-12.12
-6.67
1.73
8.89
11.16
7.76
0.36
-7.60
-12.99
-14.38
-12.08
-7.37
-0.90
6.53
13.97
19.49
21.01
17.11
8.57
-1.80
-10.31
-13.76
-11.63
-5.59
1.00
5.22
5.37
1.78
-3.81
-9.28
-12.79
-13.90
-13.01
-11.07
-8.46
-5.13
-0.80
4.57
10.13
14.76
17.83
19.89
21.82
24.36
27.03
28.40
27.13
22.69
16.63
10.91
7.31
5.60
4.17
1.16
-3.86
-9.18
-12.79
-13.38
-11.97
-10.38
-9.97
-10.22
-9.51
-6.74
-2.66
0.05
-1.44
-8.27
-18.76
-29.53
-37.20
-40.02
-37.79
-31.45
-22.48
-12.13
-2.13
5.45
8.83
7.76
4.20
0.95
0.60
3.76
9.28
14.90
18.80
19.98
18.26
13.91
7.32
-0.58
-8.46
-14.00
-15.55
-12.71
-7.25
-1.74
1.40
1.18
-1.20
-3.78
-4.52
-2.99
0.43
4.76
8.83
11.65
12.38
10.51
5.50
-1.87
-9.59
-14.71
-14.72
-9.03
0.21
9.12
14.11
13.49
8.70
2.52
-2.03
-3.55
-2.77
-1.05
0.25
1.22
2.22
3.70
5.26
5.58
3.45
-1.67
-8.72
-16.26
-22.70
-27.34
-30.08
-31.25
-31.12
-29.40
-25.92
-20.63
-14.25
-7.50
-1.37
3.77
7.64
10.56
12.90
14.75
16.63
18.59
20.68
22.55
23.58
23.23
21.04
17.55
13.62
10.23
7.66
5.87
4.46
3.26
2.67
3.33
6.00
10.47
16.32
22.62
28.24
31.74
31.64
26.72
16.53
2.59
-12.35
-24.79
-32.72
-35.84
-35.62
-33.93
-31.56
-27.88
-21.80
-13.13
-3.32
5.24
10.35
11.56
9.98
7.86
6.50
6.42
7.08
8.05
9.12
10.74
13.27
16.42
19.46
21.53
22.02
20.69
18.04
14.54
10.37
5.59
0.17
-5.78
-11.93
-17.63
-22.36
-25.12
-25.29
-22.28
-16.27
-8.06
0.68
8.21
13.03
14.31
12.11
7.27
0.75
-5.98
-11.70
-15.22
-16.26
-15.06
-12.79
-10.40
-8.57
-6.88
-4.35
-0.25
5.79
12.93
19.67
24.28
25.83
23.86
19.05
13.20
8.50
7.38
10.45
16.41
21.80
22.98
17.90
7.82
-2.94
-9.92
-10.18
-4.50
3.17
8.12
7.47
1.56
-6.74
-13.69
-17.85
-20.09
-23.16
-28.69
-35.67
-40.73
-39.83
-31.65
-18.48
-5.48
2.62
4.18
1.60
-0.70
0.21
4.42
8.49
8.96
4.00
-4.54
-12.71
-16.89
-15.42
-9.63
-2.21
3.80
6.60
5.67
1.77
-3.68
-9.08
-12.47
-13.04
-10.48
-5.63
0.26
5.82
9.63
10.72
8.48
3.46
-2.60
-7.01
-7.78
-4.23
1.92
7.57
10.17
8.87
5.73
3.64
5.16
10.32
16.80
20.94
20.36
14.97
6.83
-1.10
-6.68
-8.95
-8.63
-6.60
-3.35
1.10
6.92
13.44
19.16
21.79
19.74
12.66
2.31
-8.38
-16.60
-20.63
-20.67
-17.94
-14.35
-10.89
-7.92
-5.10
-2.25
0.29
2.22
3.23
3.98
4.92
6.57
8.19
8.61
6.83
2.79
-1.80
-4.98
-5.04
-2.34
1.45
3.86
3.43
0.52
-3.67
-7.46
-10.40
-12.33
-13.52
-13.33
-11.09
-6.27
0.56
7.38
12.20
13.60
11.83
7.99
3.49
-0.77
-4.11
-5.55
-3.98
1.61
10.34
19.66
25.77
25.71
19.30
9.13
-0.52
-6.27
-6.97
-4.28
-0.68
2.00
3.38
4.23
4.87
4.63
1.88
-3.98
-11.93
-19.03
-22.26
-20.43
-14.60
-7.79
-2.76
-1.01
-1.80
-3.64
-5.07
-5.71
-6.07
-6.52
-6.96
-6.33
-3.96
0.14
4.89
8.69
10.32
9.15
5.43
-0.46
-7.56
-14.60
-19.67
-21.02
-17.71
-10.14
-0.22
9.66
16.92
20.19
19.25
14.63
7.51
-0.66
-7.98
-12.52
-12.46
-7.56
0.98
10.53
18.11
21.89
21.53
18.32
13.79
9.60
6.54
4.73
4.00
3.88
4.14
4.74
5.87
7.19
8.29
8.33
6.68
3.46
-0.61
-3.91
-5.31
-4.60
-2.97
-2.44
-4.64
-9.61
-15.48
-19.73
-20.28
-17.39
-12.57
-8.28
-6.18
-6.56
-8.29
-9.73
-9.90
-8.49
-6.44
-4.74
-4.21
-4.57
-5.20
-5.16
-3.76
-1.03
2.87
7.06
10.97
14.04
15.94
16.73
16.28
14.46
11.21
7.27
3.67
1.70
1.92
3.74
5.87
6.61
5.54
3.10
1.06
0.79
2.88
6.42
9.83
11.90
12.01
10.73
8.39
5.64
2.69
0.16
-1.32
-1.25
0.26
2.26
3.90
4.60
4.57
4.26
3.84
2.73
-0.15
-4.86
-10.71
-15.44
-17.07
-14.64
-9.09
-2.62
2.52
4.78
4.46
2.75
1.34
0.99
1.66
2.32
1.73
-0.55
-4.14
-7.69
-10.06
-10.62
-9.92
-8.94
-8.90
-10.02
-11.86
-13.33
-13.61
-12.78
-11.63
-11.40
-12.54
-14.45
-15.66
-14.51
-10.19
-3.01
4.99
11.46
14.38
13.16
8.62
2.68
-2.71
-6.17
-6.86
-4.75
-0.07
5.96
11.86
15.81
16.70
14.57
10.22
5.46
1.50
-0.68
-1.29
-0.68
0.55
2.12
3.94
5.33
5.73
4.25
0.89
-3.61
-8.09
-11.32
-13.12
-13.74
-13.90
-13.44
-11.89
-8.47
-3.28
2.59
7.13
8.61
6.79
2.82
-0.81
-2.37
-1.08
2.36
6.23
9.48
11.59
12.99
13.70
13.33
10.66
5.24
-1.82
-7.90
-9.93
-6.42
1.68
10.71
16.48
16.05
9.48
-0.49
-9.99
-15.70
-16.58
-13.61
-9.10
-4.80
-1.87
-0.14
1.04
2.27
4.22
6.83
9.75
12.09
13.09
12.32
10.30
7.99
6.33
5.91
6.10
5.88
4.17
0.70
-3.74
-7.71
-9.51
-8.64
-5.53
-1.88
0.93
1.92
1.43
0.43
-0.21
0.06
0.87
1.80
2.01
1.32
0.07
-1.26
-2.00
-1.80
-0.65
0.78
1.97
2.13
1.20
-0.67
-2.76
-4.18
-4.90
-5.23
-6.19
-8.27
-11.36
-14.41
-16.05
-15.28
-11.99
-7.28
-2.55
0.59
1.44
-0.01
-2.96
-6.45
-9.38
-10.78
-10.26
-7.69
-3.86
0.37
3.97
6.42
7.60
7.56
6.63
4.99
3.29
1.94
1.48
2.13
3.58
5.41
6.71
7.27
7.00
6.57
6.38
6.63
6.85
6.32
4.68
2.18
-0.16
-1.37
-0.70
1.63
4.80
7.69
9.37
9.78
8.73
6.72
3.93
0.74
-2.50
-5.18
-6.70
-6.92
-5.96
-4.67
-3.36
-2.18
-0.94
0.79
2.74
4.54
5.28
4.80
3.17
1.15
-0.76
-2.24
-3.46
-4.79
-6.22
-7.26
-6.92
-4.50
-0.46
3.45
5.09
3.49
-0.66
-4.87
-6.58
-4.38
0.90
6.96
11.12
11.86
9.62
5.61
1.43
-2.28
-5.53
-8.54
-11.03
-12.06
-10.62
-6.08
0.78
8.16
13.26
13.89
9.48
2.00
-4.74
-7.01
-3.43
3.79
9.96
10.38
3.75
-7.34
-17.77
-22.98
-21.76
-16.07
-9.83
-5.62
-4.05
-3.67
-2.76
-0.73
1.90
3.61
3.75
2.21
-0.08
-2.32
-3.88
-4.48
-4.15
-2.83
-1.13
0.19
0.46
-0.31
-1.38
-1.62
-0.15
2.97
6.93
10.16
11.75
11.16
8.79
5.24
1.23
-2.43
-5.42
-7.10
-7.34
-5.98
-3.54
-0.75
1.70
3.47
5.00
6.55
8.25
9.19
8.33
4.75
-1.29
-8.34
-14.17
-16.75
-14.97
-8.99
-0.14
9.72
18.31
23.66
24.06
18.64
8.41
-4.17
-15.25
-21.71
-22.14
-17.71
-11.21
-5.27
-1.27
1.14
2.93
5.31
8.24
11.39
14.25
16.54
18.52
19.82
19.75
17.06
11.59
4.32
-2.58
-6.76
-7.25
-4.88
-1.57
1.08
2.34
3.09
4.09
5.69
7.25
7.47
5.65
1.76
-2.88
-6.90
-9.29
-9.99
-9.73
-9.43
-9.90
-11.02
-12.39
-13.24
-12.91
-11.17
-8.11
-4.22
0.13
4.24
7.74
10.02
10.71
9.72
7.50
4.52
1.41
-1.38
-3.66
-5.13
-5.81
-5.59
-4.73
-4.07
-4.26
-5.84
-8.12
-9.74
-9.28
-6.32
-1.75
2.51
4.83
4.59
2.41
-0.61
-3.61
-6.18
-8.14
-8.94
-7.78
-4.59
0.06
4.49
7.08
7.08
5.34
3.22
2.00
1.39
0.18
-3.11
-8.90
-16.13
-22.52
-26.01
-25.49
-21.13
-14.04
-5.68
2.91
10.76
17.06
20.94
21.88
19.80
15.53
10.75
7.26
6.68
9.04
13.27
17.37
19.34
18.32
14.74
10.24
6.69
5.57
6.62
8.54
9.42
8.03
4.37
-0.25
-4.11
-6.10
-6.18
-5.66
-5.96
-7.97
-11.62
-15.82
-19.49
-21.96
-23.36
-23.57
-22.58
-19.79
-14.74
-7.64
1.02
9.80
17.56
23.14
26.16
26.95
26.14
24.65
22.88
20.83
18.04
14.07
8.70
2.42
-3.90
-9.14
-12.11
-12.48
-10.43
-6.95
-2.92
0.33
2.10
2.01
0.33
-2.08
-4.71
-6.86
-8.58
-9.72
-10.25
-10.04
-9.08
-8.10
-7.78
-9.05
-11.89
-15.74
-19.30
-21.59
-21.86
-20.29
-17.67
-14.67
-11.99
-9.64
-7.54
-5.40
-3.15
-0.71
1.79
3.97
5.92
7.42
8.88
10.53
12.71
15.26
17.40
18.14
16.73
13.52
9.35
5.69
3.36
2.52
2.86
3.75
4.90
6.01
7.18
7.76
7.43
6.02
3.79
1.53
0.07
0.06
1.23
3.31
5.45
7.44
8.96
9.61
8.83
6.25
2.40
-1.62
-4.17
-4.74
-3.73
-2.74
-3.33
-6.03
-10.18
-13.90
-15.74
-14.86
-11.86
-7.92
-4.76
-3.64
-4.81
-8.07
-12.09
-15.25
-15.70
-12.55
-6.26
0.96
5.95
6.51
2.18
-4.78
-11.20
-14.07
-12.71
-8.33
-3.40
0.08
2.19
4.29
8.53
15.48
23.74
30.08
31.05
24.96
12.54
-2.63
-16.33
-24.49
-25.19
-18.62
-6.85
6.92
19.59
28.74
33.37
33.46
29.93
23.91
16.40
8.53
1.34
-3.62
-5.39
-3.27
1.80
8.20
13.47
15.76
14.39
9.47
2.13
-6.51
-15.00
-21.90
-25.29
-23.84
-17.59
-8.17
1.33
8.28
11.11
10.43
7.79
5.05
3.21
2.57
3.22
5.06
7.94
10.94
12.65
11.52
6.92
-0.09
-7.40
-12.49
-14.30
-13.01
-10.38
-8.15
-7.26
-7.61
-8.28
-8.24
-6.92
-4.90
-3.20
-3.45
-6.42
-11.61
-17.07
-20.00
-18.28
-11.35
-1.42
7.82
12.69
11.83
6.76
0.93
-2.01
-0.71
3.83
8.70
11.53
11.70
10.55
10.20
11.57
13.76
14.15
10.71
2.99
-6.76
-15.13
-19.31
-18.34
-13.82
-8.30
-4.59
-4.00
-6.33
-10.06
-13.52
-15.48
-15.36
-13.59
-10.90
-8.11
-5.75
-4.17
-3.33
-3.07
-3.29
-3.61
-3.99
-3.77
-2.33
0.76
4.97
8.96
10.80
8.84
3.36
-4.10
-10.65
-13.73
-12.05
-6.02
2.60
11.52
18.36
21.83
21.58
18.54
14.07
9.79
6.71
5.05
4.16
2.80
0.30
-3.38
-7.09
-9.31
-8.87
-5.38
0.40
7.28
13.58
18.14
20.02
19.30
16.30
11.73
6.28
0.23
-5.88
-11.56
-15.64
-17.24
-15.85
-12.10
-7.34
-3.17
-0.73
-0.03
-0.45
-1.12
-1.70
-2.23
-2.87
-3.76
-4.40
-4.42
-3.54
-2.38
-1.58
-1.82
-3.22
-5.00
-6.20
-6.11
-4.62
-1.99
1.14
4.58
7.95
10.99
13.22
13.89
12.69
9.83
6.41
3.79
3.19
4.59
7.25
9.57
9.99
7.70
3.06
-2.13
-5.71
-5.99
-3.06
1.23
4.32
4.05
0.54
-4.47
-8.40
-9.41
-7.06
-2.64
2.01
5.13
5.50
3.27
-1.15
-6.50
-11.64
-15.43
-17.14
-16.41
-13.35
-8.13
-0.82
7.99
17.26
25.04
28.91
27.14
19.68
8.68
-2.45
-10.46
-13.74
-12.50
-8.64
-4.46
-1.67
-1.01
-2.01
-3.67
-4.88
-5.35
-5.27
-5.18
-5.51
-6.02
-6.30
-5.51
-3.32
0.09
3.60
5.81
5.57
2.64
-1.91
-6.25
-8.28
-6.90
-2.31
3.65
8.78
11.19
10.65
8.33
6.06
5.47
6.54
8.22
8.93
7.91
5.54
3.10
1.71
1.33
0.79
-1.77
-7.07
-14.09
-20.28
-22.78
-20.22
-13.67
-5.98
-0.27
1.63
-0.03
-3.42
-6.81
-8.84
-9.50
-8.98
-7.60
-5.10
-1.36
3.27
7.97
11.16
11.79
9.17
3.75
-3.14
-9.42
-13.02
-12.71
-8.68
-2.81
2.45
4.92
4.24
1.69
-0.27
0.05
3.09
7.53
11.41
13.47
13.39
11.88
9.79
7.34
4.47
0.80
-3.37
-7.48
-10.27
-10.93
-9.37
-6.57
-4.60
-5.06
-8.35
-13.15
-17.30
-18.78
-17.23
-13.70
-10.02
-7.57
-6.21
-4.95
-2.40
1.72
6.97
12.07
16.38
19.89
22.90
25.65
27.46
27.61
25.22
20.27
13.25
5.23
-2.35
-8.37
-11.69
-12.25
-10.48
-7.60
-4.81
-2.71
-0.70
2.09
5.76
9.45
10.73
8.30
2.13
-5.32
-10.76
-11.96
-8.82
-3.59
1.16
3.61
4.07
4.06
5.13
7.77
10.78
12.67
11.98
8.78
3.59
-2.28
-7.95
-12.95
-17.14
-20.74
-23.68
-25.99
-27.03
-26.49
-24.00
-20.36
-17.04
-15.66
-17.43
-21.32
-25.08
-25.19
-19.51
-7.90
7.13
21.34
31.12
34.59
32.52
27.13
21.20
16.36
13.01
10.75
8.73
6.56
3.77
0.62
-2.59
-4.94
-5.66
-4.26
-0.98
2.69
5.25
5.59
4.48
3.99
6.92
14.70
26.39
39.03
48.43
51.77
48.22
39.35
27.84
16.31
6.14
-2.26
-8.67
-12.76
-13.88
-12.24
-8.84
-5.77
-5.02
-7.35
-12.16
-17.39
-20.90
-21.13
-18.15
-13.22
-8.20
-4.56
-2.54
-1.41
-0.21
1.33
2.92
3.34
1.75
-1.99
-6.86
-11.01
-12.91
-11.82
-8.45
-4.11
-0.35
2.06
3.06
3.21
3.20
3.39
3.88
4.24
3.83
2.21
-0.54
-3.70
-6.21
-7.05
-6.17
-3.99
-1.67
-0.34
-0.77
-2.87
-5.90
-8.73
-10.03
-9.25
-6.15
-1.80
2.53
5.55
6.51
5.38
2.76
-0.36
-3.14
-4.82
-5.11
-3.72
-0.89
2.71
6.28
9.01
10.55
11.00
11.02
10.84
10.22
8.64
5.46
0.89
-4.39
-9.01
-11.82
-12.36
-11.11
-9.06
-7.06
-5.58
-4.38
-3.44
-2.65
-2.50
-3.30
-5.06
-7.22
-8.90
-9.67
-9.67
-9.76
-10.27
-10.80
-9.90
-6.11
0.96
9.77
17.17
20.36
17.72
10.34
1.09
-6.62
-10.40
-9.86
-6.32
-2.04
1.01
1.94
1.09
-0.59
-1.99
-2.46
-2.21
-1.34
0.02
1.96
4.12
5.74
5.65
3.09
-1.33
-5.57
-6.74
-3.26
4.27
12.46
17.00
14.84
6.32
-4.75
-13.45
-16.07
-12.38
-5.12
1.65
5.31
5.81
5.19
6.00
8.82
12.41
14.11
12.13
6.62
-0.47
-6.52
-9.69
-9.42
-6.64
-2.68
0.93
3.19
3.53
1.97
-0.65
-3.02
-3.62
-1.68
2.65
7.62
11.30
12.00
9.26
4.14
-1.57
-5.94
-8.12
-8.14
-7.25
-6.88
-7.63
-9.33
-10.79
-10.89
-9.09
-6.08
-2.97
-0.84
0.03
-0.02
-0.31
-0.37
-0.29
0.14
1.19
3.44
6.77
10.44
12.88
12.30
8.39
1.78
-5.22
-10.43
-12.24
-10.79
-7.29
-3.45
-0.69
0.84
1.40
1.75
2.36
3.48
4.67
5.38
5.02
3.29
0.57
-2.34
-4.06
-3.74
-1.02
3.25
7.50
10.00
9.69
7.48
4.95
4.47
6.82
10.95
14.41
14.47
10.30
3.17
-3.49
-6.80
-5.21
0.34
7.28
12.94
15.45
14.64
10.89
5.42
-1.02
-7.28
-12.45
-15.80
-16.95
-16.42
-14.77
-13.04
-11.52
-10.43
-9.37
-7.91
-5.80
-2.67
0.84
4.10
5.61
4.39
0.16
-5.88
-11.83
-15.81
-16.46
-14.13
-9.90
-5.60
-2.40
-1.04
-1.48
-3.12
-5.37
-7.18
-8.03
-7.28
-5.06
-1.90
1.23
3.63
5.11
5.70
6.04
6.46
7.61
9.89
13.63
18.80
24.67
30.23
34.12
35.56
33.81
29.29
22.76
15.60
9.28
4.76
2.37
1.16
0.12
-1.96
-5.16
-8.86
-11.91
-13.66
-14.68
-16.14
-19.40
-24.11
-28.83
-30.95
-28.72
-22.38
-13.91
-6.36
-1.49
0.14
-0.19
-0.88
-0.54
1.10
3.38
5.25
5.57
4.32
2.10
0.38
0.01
0.74
1.38
0.03
-3.99
-10.01
-15.82
-19.31
-19.11
-15.95
-11.77
-8.09
-5.83
-3.85
-0.92
3.61
8.99
13.45
15.28
13.85
10.18
5.92
3.07
2.33
3.61
5.87
8.16
10.12
11.84
13.81
15.89
17.71
18.28
16.84
13.52
9.01
4.51
1.01
-0.69
-0.89
-0.26
-0.22
-1.90
-5.46
-10.00
-13.61
-14.79
-13.10
-9.73
-6.36
-4.77
-5.36
-7.33
-9.24
-9.52
-7.88
-4.67
-1.19
1.76
4.29
7.11
10.98
15.76
20.24
22.23
20.04
13.50
4.68
-2.93
-6.08
-3.50
3.12
10.05
13.36
11.38
5.08
-2.31
-7.51
-9.02
-7.44
-5.09
-4.14
-5.99
-10.15
-15.25
-19.42
-21.17
-20.02
-16.17
-11.03
-6.05
-2.58
-1.20
-1.68
-2.90
-3.66
-3.42
-2.22
-0.71
1.09
3.60
7.52
12.42
16.80
18.55
16.37
10.84
3.63
-3.19
-8.62
-12.76
-16.32
-19.28
-20.55
-18.93
-13.86
-6.71
0.05
4.18
5.24
4.65
4.42
5.95
8.64
11.01
11.16
8.68
4.17
-0.85
-4.82
-6.84
-6.50
-4.34
-1.01
2.17
4.35
5.10
4.87
4.93
6.11
8.43
10.51
11.29
10.12
8.05
6.72
7.38
9.64
11.80
11.94
9.02
4.36
0.08
-1.65
-0.25
2.81
5.18
4.65
0.81
-5.40
-11.57
-15.78
-16.67
-14.23
-9.58
-4.05
0.73
3.79
4.42
2.84
-0.30
-4.02
-7.11
-8.83
-8.46
-6.19
-2.55
1.17
3.96
4.78
3.54
0.99
-1.85
-3.46
-3.23
-1.17
1.52
3.56
3.85
2.27
-0.14
-2.41
-3.65
-4.43
-5.63
-8.27
-12.20
-15.67
-16.28
-12.28
-4.51
3.97
8.74
7.29
0.48
-7.24
-10.39
-5.86
4.88
16.15
21.82
18.44
7.63
-5.23
-14.44
-16.85
-13.65
-8.63
-5.84
-6.46
-9.07
-10.76
-9.61
-6.05
-1.80
1.31
3.28
5.53
9.87
16.18
22.45
25.60
23.41
16.35
6.97
-0.93
-4.81
-4.20
-0.97
2.56
4.96
5.78
5.66
5.07
4.40
3.57
2.84
2.50
3.18
5.14
7.91
10.89
12.90
13.20
11.06
6.35
-0.40
-7.93
-14.72
-19.62
-21.78
-21.46
-18.81
-14.11
-7.79
-0.82
4.92
7.40
5.53
0.73
-3.97
-4.52
0.97
10.86
20.41
24.31
19.92
8.64
-4.38
-14.20
-17.96
-16.60
-13.13
-10.23
-8.96
-8.30
-7.10
-4.73
-2.47
-1.86
-3.87
-8.06
-12.09
-13.52
-10.70
-3.84
5.46
14.50
20.84
22.96
20.57
15.02
8.04
2.03
-1.79
-2.82
-1.76
0.50
3.14
5.40
7.19
8.13
8.24
7.31
5.60
3.25
0.77
-1.11
-1.97
-1.26
0.19
1.44
1.31
-0.67
-4.01
-7.37
-9.64
-10.73
-11.38
-13.43
-17.80
-24.12
-30.41
-34.19
-33.92
-29.69
-23.44
-16.99
-11.84
-7.88
-4.38
-0.92
2.30
4.48
5.24
4.77
4.66
6.27
10.38
16.15
21.80
26.04
28.66
30.77
33.20
36.08
37.58
35.52
28.13
15.75
1.20
-11.86
-19.80
-21.33
-17.11
-9.80
-2.08
4.15
8.12
10.04
9.81
7.50
2.92
-3.24
-9.54
-13.83
-14.52
-11.89
-7.60
-4.41
-3.62
-5.07
-6.62
-6.25
-3.05
2.29
7.67
11.65
13.35
13.57
13.13
13.17
14.14
15.88
17.80
18.59
17.33
13.20
6.53
-1.57
-8.95
-13.68
-14.67
-12.10
-7.52
-2.56
1.10
2.89
3.17
2.80
2.51
2.15
1.15
-1.53
-6.15
-12.18
-17.73
-20.75
-20.32
-16.92
-12.40
-8.58
-6.84
-6.96
-8.23
-9.70
-10.99
-12.39
-14.07
-16.14
-17.72
-17.67
-14.75
-8.86
-0.92
7.14
13.42
16.98
17.78
16.53
13.93
10.93
8.14
6.40
6.45
8.38
11.67
14.77
16.33
15.80
13.91
12.03
11.12
10.98
9.96
6.53
0.38
-6.72
-12.35
-14.38
-12.67
-8.70
-4.69
-2.31
-1.77
-2.55
-3.60
-4.84
-6.39
-8.63
-11.57
-14.66
-17.23
-18.72
-19.15
-18.62
-17.21
-14.83
-11.65
-8.34
-5.94
-5.62
-7.64
-11.11
-14.17
-14.97
-12.72
-8.21
-3.29
0.60
3.17
6.05
10.94
18.56
27.24
33.34
33.39
25.99
13.55
0.81
-6.71
-6.06
1.81
12.44
20.25
21.30
15.29
5.77
-2.52
-5.55
-2.41
4.47
10.99
13.65
11.42
5.97
0.46
-3.11
-4.39
-5.19
-7.44
-11.67
-16.66
-19.79
-19.08
-13.97
-6.12
2.16
8.60
11.91
12.22
9.98
6.23
1.95
-1.40
-2.65
-0.88
3.56
9.02
13.40
14.87
13.14
9.24
5.18
2.35
1.49
1.77
2.20
2.43
2.47
3.10
4.32
5.73
6.44
5.95
4.26
1.86
-0.89
-4.67
-10.25
-18.40
-28.26
-37.30
-42.14
-40.61
-33.13
-22.49
-13.00
-7.48
-6.45
-7.69
-8.02
-5.20
1.11
9.31
17.41
23.49
27.14
28.46
28.07
26.21
22.87
18.33
12.97
8.04
4.67
4.10
6.36
10.67
14.70
15.93
12.96
5.95
-2.37
-8.94
-11.35
-9.64
-5.98
-3.17
-3.30
-6.00
-9.71
-12.14
-12.33
-10.52
-8.13
-6.52
-6.11
-6.51
-6.37
-4.81
-1.16
4.01
9.55
14.26
17.22
18.59
18.98
19.31
19.41
18.57
15.17
8.46
-0.83
-10.72
-18.45
-22.29
-22.05
-19.33
-16.05
-13.69
-12.73
-12.49
-12.20
-11.00
-8.97
-6.40
-4.13
-2.51
-1.69
-1.71
-2.25
-3.41
-4.86
-6.72
-8.94
-11.51
-13.82
-14.98
-13.91
-9.82
-3.23
4.60
11.48
15.77
16.67
14.76
11.60
9.06
8.50
9.90
12.42
14.34
14.14
11.05
5.25
-2.09
-9.17
-13.92
-15.24
-12.94
-8.54
-4.23
-2.02
-2.63
-5.09
-7.71
-8.71
-7.86
-5.68
-3.58
-2.12
-0.93
0.74
3.40
6.31
8.18
7.85
5.64
3.23
2.92
5.57
10.18
14.10
14.78
11.47
5.73
0.72
-1.17
0.54
3.93
5.98
4.61
-0.13
-6.05
-10.30
-10.89
-8.06
-3.81
-0.51
0.49
-0.24
-1.16
-0.53
1.92
5.17
7.39
7.33
4.77
0.75
-3.05
-5.42
-5.40
-3.15
0.86
5.35
9.30
11.71
12.15
10.82
8.29
5.62
3.37
1.97
0.83
-0.77
-3.52
-7.37
-11.30
-14.25
-15.28
-14.47
-12.50
-10.65
-10.07
-10.94
-12.77
-14.07
-13.92
-12.01
-9.09
-5.99
-3.00
0.23
4.69
10.69
17.87
24.65
29.66
31.80
30.78
26.95
20.91
13.79
6.69
1.23
-1.57
-1.25
1.56
5.46
8.84
10.29
9.18
5.11
-1.56
-9.85
-17.78
-22.87
-23.19
-17.90
-8.64
1.71
9.73
13.64
13.49
10.53
6.38
1.97
-2.27
-6.26
-9.31
-10.82
-10.43
-8.41
-5.82
-3.77
-3.56
-5.47
-9.03
-12.74
-14.90
-13.85
-9.55
-3.43
1.95
4.08
2.29
-2.28
-6.68
-8.39
-6.79
-3.38
-1.13
-1.76
-5.35
-9.55
-11.85
-11.09
-8.46
-6.22
-6.19
-8.43
-10.53
-9.70
-4.04
5.59
16.53
25.42
29.85
29.45
25.49
20.28
15.49
12.36
10.63
9.80
8.89
7.21
4.56
0.92
-2.85
-6.03
-7.64
-7.22
-4.96
-1.52
1.78
3.89
3.99
2.35
-0.30
-2.57
-3.50
-2.98
-1.48
0.09
1.50
2.35
3.00
3.31
2.88
1.08
-2.68
-7.83
-13.21
-16.75
-17.07
-13.44
-6.96
0.70
7.64
12.31
14.63
14.83
14.06
13.09
12.32
11.49
9.86
6.78
1.96
-3.87
-9.90
-14.77
-17.99
-19.26
-19.07
-18.04
-16.30
-14.01
-10.94
-7.52
-4.36
-2.47
-2.57
-4.17
-6.15
-6.83
-5.58
-2.48
0.94
3.36
4.00
3.05
1.64
0.64
0.70
1.54
2.65
3.22
2.86
1.09
-2.29
-6.86
-11.73
-14.98
-15.33
-12.19
-6.82
-1.66
0.63
-1.33
-6.94
-14.14
-19.74
-21.64
-18.94
-12.06
-2.24
9.10
20.34
29.80
35.38
35.85
31.12
23.15
14.89
9.24
7.76
9.84
13.54
16.05
15.68
11.66
4.88
-3.26
-11.16
-17.39
-20.77
-20.20
-15.28
-6.08
6.12
19.32
30.75
37.65
38.23
32.02
21.04
8.89
0.03
-2.81
0.83
8.13
14.99
17.84
15.16
8.45
0.15
-7.05
-12.20
-15.67
-18.61
-21.71
-24.36
-25.66
-24.45
-20.61
-14.89
-8.95
-4.13
-1.14
0.38
1.69
3.77
7.27
11.17
13.98
14.22
11.40
6.40
0.95
-3.17
-5.51
-6.37
-7.15
-8.71
-11.30
-14.41
-16.95
-17.91
-16.49
-12.91
-7.58
-1.92
2.67
5.08
4.83
2.46
-0.90
-3.93
-6.00
-6.29
-4.43
0.12
7.45
16.61
25.71
32.10
33.86
30.55
23.97
16.50
10.26
5.99
2.54
-1.38
-6.80
-13.11
-18.94
-22.49
-23.15
-21.26
-17.63
-13.57
-9.60
-6.39
-4.21
-3.38
-3.88
-5.38
-7.01
-7.56
-6.56
-3.99
-1.10
0.85
0.74
-1.53
-5.48
-10.51
-15.56
-19.93
-22.03
-20.68
-14.92
-5.07
6.91
18.51
27.28
32.41
34.51
35.59
37.30
40.04
42.52
42.60
39.13
32.52
25.06
18.91
15.20
12.68
8.76
0.97
-11.25
-25.60
-38.69
-46.87
-48.91
-45.68
-39.56
-33.18
-28.02
-24.81
-23.30
-23.29
-23.94
-24.29
-23.08
-19.57
-14.08
-7.95
-3.27
-1.61
-4.20
-10.98
-21.37
-33.80
-45.90
-54.81
-57.68
-52.93
-40.69
-22.99
-2.86
16.40
32.08
42.44
46.36
44.04
36.68
27.15
19.07
15.61
17.83
24.20
31.75
37.32
39.50
38.66
36.41
34.15
32.51
31.04
28.67
24.93
19.81
13.78
7.62
1.95
-2.86
-6.38
-8.43
-8.95
-8.28
-7.18
-6.55
-6.94
-8.50
-10.87
-13.35
-15.18
-16.01
-15.80
-15.01
-14.01
-12.85
-11.35
-9.37
-7.10
-5.17
-4.28
-4.58
-5.44
-5.53
-3.76
-0.11
4.31
7.97
9.64
9.15
7.26
4.77
2.30
-0.17
-2.58
-4.23
-4.29
-2.27
1.32
5.23
8.05
9.43
9.66
9.05
7.54
4.29
-1.23
-8.23
-14.04
-15.72
-11.41
-1.90
9.29
17.53
19.26
13.94
3.77
-7.17
-15.39
-19.24
-19.05
-16.49
-13.19
-10.27
-7.84
-6.28
-6.14
-8.11
-12.35
-17.31
-20.61
-19.57
-13.67
-4.71
3.64
8.02
7.52
3.85
0.58
0.29
3.67
8.78
12.97
14.34
13.15
11.33
10.61
11.81
13.83
15.08
14.42
12.25
10.02
9.25
10.37
12.19
13.11
11.72
8.13
3.62
-0.15
-1.88
-1.44
0.60
3.13
5.45
6.66
6.49
4.96
2.26
-0.86
-3.77
-5.84
-7.07
-7.59
-8.25
-9.64
-11.85
-14.29
-15.60
-14.42
-9.83
-2.59
5.56
12.02
14.99
13.98
10.10
5.52
1.78
-0.38
-1.39
-1.98
-2.81
-3.80
-4.83
-6.31
-8.29
-10.91
-13.15
-13.81
-11.94
-8.01
-3.60
-0.48
0.10
-1.24
-3.31
-4.80
-5.77
-6.87
-8.76
-11.12
-12.13
-10.44
-5.65
0.51
5.65
7.58
5.62
1.13
-3.81
-6.99
-7.04
-3.41
3.28
12.33
22.86
33.62
43.19
49.38
50.18
43.97
31.71
16.43
2.80
-5.07
-6.02
-2.44
0.52
-1.20
-8.58
-17.95
-23.97
-23.14
-16.30
-8.64
-5.78
-10.48
-20.28
-29.60
-33.14
-29.38
-20.69
-11.40
-4.48
0.37
5.26
12.21
20.75
27.83
29.35
23.17
10.65
-4.12
-15.46
-19.38
-14.72
-3.67
9.22
18.95
21.96
17.29
6.55
-6.20
-16.48
-20.91
-18.44
-10.97
-2.07
4.55
7.24
6.24
4.06
2.92
4.18
7.11
9.48
9.46
6.15
0.58
-5.47
-10.39
-13.95
-17.05
-20.39
-24.01
-26.30
-25.48
-20.57
-12.40
-3.92
1.27
0.78
-4.96
-12.80
-17.94
-16.47
-7.20
7.91
24.96
40.14
51.04
57.17
58.77
56.13
48.70
36.35
19.99
2.39
-12.66
-22.27
-25.71
-24.93
-23.21
-23.49
-26.69
-31.56
-35.92
-37.53
-35.66
-30.67
-23.60
-15.43
-6.94
1.05
7.31
10.43
9.82
6.36
2.81
1.98
5.80
13.62
22.74
29.57
31.72
29.44
24.83
21.09
20.08
21.88
24.33
25.08
22.79
18.03
13.32
11.31
14.21
21.95
32.46
42.28
47.84
47.13
39.98
28.43
15.05
2.49
-8.18
-17.13
-25.36
-33.70
-41.96
-49.46
-54.88
-57.74
-58.34
-57.67
-57.05
-57.02
-57.12
-55.58
-50.41
-39.93
-24.39
-5.75
12.89
28.42
38.98
43.76
43.26
38.12
29.46
18.55
7.51
-0.72
-3.63
-0.27
7.32
14.80
17.28
12.08
0.14
-14.10
-24.94
-28.75
-25.38
-18.06
-11.24
-7.90
-8.09
-9.49
-9.42
-6.49
-1.96
1.86
2.75
0.49
-3.47
-6.93
-8.29
-7.41
-4.70
-0.63
5.35
13.48
23.26
32.43
37.66
36.26
27.75
14.38
0.12
-10.97
-17.15
-19.48
-20.79
-23.46
-27.53
-30.67
-29.44
-21.95
-9.27
4.63
14.73
18.20
15.34
9.58
4.55
2.17
1.38
-0.48
-5.30
-12.37
-18.42
-20.49
-17.37
-11.33
-5.89
-3.64
-4.40
-5.45
-3.54
2.91
12.10
20.91
26.16
27.02
24.60
20.56
16.05
10.89
4.77
-2.15
-8.12
-11.09
-9.65
-4.41
1.78
5.25
3.12
-4.64
-15.10
-23.01
-23.90
-16.04
-1.78
13.44
24.41
27.88
24.73
18.87
14.79
14.20
15.41
14.85
9.30
-0.61
-10.89
-15.70
-11.04
2.93
21.26
36.59
42.75
37.36
23.13
5.29
-10.52
-21.24
-26.64
-28.24
-27.70
-25.41
-21.40
-15.74
-9.58
-4.68
-2.59
-3.46
-5.70
-7.14
-5.88
-2.06
2.53
5.13
4.15
0.29
-3.99
-5.80
-3.97
0.80
5.80
8.92
9.53
9.10
9.91
12.88
17.05
19.77
18.75
13.03
4.00
-5.36
-12.13
-14.42
-12.41
-7.60
-2.32
1.40
2.23
0.51
-2.27
-4.56
-5.39
-5.06
-4.32
-4.04
-3.89
-3.10
-0.93
2.21
4.44
4.42
2.22
0.34
2.02
9.56
22.31
36.09
45.31
45.40
35.72
19.57
2.71
-9.58
-14.77
-13.56
-9.38
-5.82
-5.62
-8.99
-14.72
-20.88
-25.97
-29.70
-32.63
-35.52
-38.02
-39.06
-36.84
-30.75
-21.62
-11.76
-3.74
1.53
4.75
8.01
12.15
16.21
17.68
14.47
7.10
-1.20
-5.68
-3.43
5.51
18.00
29.96
38.54
42.79
43.68
42.13
39.24
35.57
32.40
31.01
32.07
34.79
36.51
34.39
26.83
15.21
2.74
-6.74
-11.58
-13.00
-13.73
-16.34
-21.15
-26.57
-30.02
-30.47
-28.72
-27.12
-27.96
-31.41
-35.83
-38.45
-37.82
-34.27
-29.87
-26.94
-26.42
-27.69
-28.83
-28.54
-26.24
-22.63
-18.29
-13.15
-6.39
2.67
13.07
22.35
26.91
24.80
16.77
6.43
-1.69
-4.65
-2.24
2.96
8.16
11.55
13.66
16.04
19.66
23.86
26.74
27.11
24.93
21.98
19.93
19.02
17.21
11.58
0.40
-15.52
-32.23
-44.79
-49.16
-44.14
-31.63
-16.01
-2.02
7.00
9.66
7.01
1.07
-5.57
-10.94
-14.15
-14.93
-13.63
-10.58
-6.55
-2.10
1.99
5.54
8.65
11.63
14.36
15.46
13.50
7.58
-0.76
-8.15
-10.91
-7.24
0.78
8.82
12.35
9.74
2.55
-5.13
-9.91
-10.65
-8.34
-5.00
-1.59
1.86
5.97
10.38
13.65
14.14
10.97
5.35
-0.45
-4.11
-4.95
-4.00
-3.30
-4.11
-5.75
-6.12
-2.60
5.33
15.52
23.41
24.69
18.21
6.43
-5.22
-12.29
-12.54
-7.43
0.05
7.11
12.58
16.57
19.32
20.78
20.05
16.67
10.61
2.95
-4.83
-11.53
-16.27
-18.61
-17.87
-13.98
-7.57
-0.31
5.66
8.79
8.74
6.67
3.82
1.34
-0.33
-0.96
-0.51
1.05
3.73
6.64
9.10
10.66
11.41
11.80
12.62
13.97
14.82
13.98
10.23
3.88
-3.64
-9.73
-12.39
-10.92
-6.37
-1.23
2.68
4.61
5.92
8.63
13.74
19.81
23.40
20.92
10.64
-5.37
-22.58
-35.82
-42.33
-42.47
-38.93
-34.81
-31.56
-28.57
-24.75
-19.88
-14.94
-11.68
-11.34
-13.34
-15.95
-16.85
-14.65
-9.06
-1.29
6.62
12.79
16.25
17.51
17.29
16.54
15.66
14.57
13.15
11.41
9.57
7.34
4.52
0.54
-4.07
-7.96
-9.10
-5.96
1.47
10.99
19.15
22.80
20.50
13.44
4.44
-3.40
-8.01
-8.86
-6.74
-3.02
1.42
5.83
10.12
14.01
16.97
18.29
17.17
13.74
8.86
4.22
1.63
1.65
3.64
5.58
5.73
2.65
-3.34
-11.09
-18.93
-25.69
-30.39
-32.48
-31.98
-28.91
-23.82
-17.67
-11.74
-6.98
-3.79
-1.96
-1.03
-1.03
-1.98
-4.40
-7.83
-11.40
-13.56
-13.14
-9.88
-4.46
1.68
6.98
10.53
12.31
12.86
12.86
12.99
12.96
12.59
11.22
9.22
7.14
6.17
7.01
9.61
12.92
15.26
15.44
13.05
9.03
4.75
1.31
-0.91
-2.34
-3.47
-4.93
-6.07
-6.39
-5.26
-2.80
0.56
4.09
7.52
10.87
13.80
15.98
16.17
13.84
9.59
5.25
3.19
4.23
7.28
8.96
6.27
-2.17
-14.19
-25.46
-31.97
-31.61
-25.71
-17.30
-9.83
-4.78
-1.76
1.14
6.00
13.14
21.81
29.87
35.21
36.51
33.88
28.71
23.11
19.42
18.55
20.39
22.70
22.86
18.54
9.24
-3.28
-15.99
-25.57
-30.63
-31.21
-29.48
-27.87
-27.86
-29.95
-32.94
-35.11
-34.61
-30.81
-23.90
-15.47
-7.60
-1.82
1.07
1.72
1.44
1.95
4.25
8.44
13.65
18.31
21.05
20.53
16.89
11.22
6.01
3.75
5.77
11.43
17.74
21.51
20.33
14.77
7.27
1.14
-1.33
0.11
4.12
8.51
11.79
13.22
13.37
13.04
13.05
14.24
17.37
22.97
30.92
40.46
49.53
56.17
58.52
56.33
50.64
42.92
34.76
26.91
19.69
13.04
7.07
1.78
-3.07
-8.25
-15.01
-23.56
-33.16
-41.22
-45.46
-44.60
-40.11
-35.16
-32.98
-35.31
-40.82
-46.35
-48.79
-46.62
-40.33
-32.32
-24.80
-19.07
-15.56
-13.59
-13.04
-13.65
-15.22
-16.82
-17.29
-15.63
-11.62
-6.19
-0.50
3.82
6.12
6.10
4.06
1.03
-1.74
-2.52
-0.46
4.66
11.00
16.36
18.86
17.92
14.79
11.23
8.14
4.76
-0.31
-8.23
-17.71
-25.72
-28.82
-24.76
-14.34
-0.16
13.88
24.84
30.56
30.11
23.37
10.97
-4.89
-21.50
-35.21
-43.65
-45.75
-42.40
-35.53
-26.84
-17.55
-7.58
2.84
13.33
22.32
27.98
28.97
25.08
17.80
9.41
2.73
-0.63
-0.14
3.02
7.05
10.06
10.57
8.40
3.86
-2.10
-8.59
-14.57
-19.16
-21.18
-19.55
-13.79
-4.45
6.00
14.35
17.54
14.57
7.36
-0.10
-3.49
-1.16
5.61
12.58
15.97
14.19
8.91
3.57
0.72
0.92
2.39
3.05
1.72
-0.62
-1.96
-0.97
2.30
5.99
7.98
6.60
1.52
-6.28
-14.79
-21.68
-24.90
-23.06
-16.56
-7.15
2.23
9.04
12.19
12.35
11.36
10.49
9.97
8.15
3.62
-4.11
-13.11
-19.93
-21.87
-17.97
-10.20
-1.69
4.48
7.08
7.11
6.83
8.40
12.13
17.12
21.28
23.34
23.14
21.93
21.32
21.69
22.10
20.36
14.86
5.62
-4.99
-13.43
-17.01
-15.67
-12.25
-10.36
-12.54
-17.82
-23.33
-25.92
-24.57
-20.89
-17.53
-16.62
-18.21
-20.94
-23.05
-24.24
-25.07
-26.10
-26.71
-24.88
-19.02
-9.14
1.79
9.91
12.34
9.15
3.19
-1.92
-3.62
-1.82
2.50
7.92
14.31
21.83
30.00
36.87
38.90
34.04
22.79
9.13
-2.16
-7.85
-8.33
-6.50
-5.25
-5.46
-5.24
-2.38
3.84
11.25
16.19
15.95
10.73
3.80
-1.04
-1.65
0.89
3.94
4.80
2.61
-1.19
-4.73
-6.41
-6.47
-6.19
-7.35
-10.88
-16.54
-23.36
-29.56
-33.97
-35.70
-34.96
-32.13
-27.77
-22.19
-15.21
-6.99
2.17
10.84
17.50
20.99
21.15
18.94
15.71
12.85
11.08
11.03
12.79
16.22
20.45
23.71
24.20
20.72
14.13
6.34
-0.11
-3.76
-4.47
-3.28
-1.42
0.65
2.74
5.40
8.41
11.29
12.88
11.86
7.89
1.29
-5.70
-10.26
-9.57
-2.50
9.42
22.05
30.59
31.96
25.93
15.39
4.49
-3.72
-8.35
-10.62
-12.28
-14.70
-17.44
-19.70
-20.12
-18.19
-13.86
-8.07
-1.97
3.55
7.55
10.22
11.88
13.34
14.75
15.89
16.29
15.34
13.41
11.07
9.12
7.79
6.96
5.96
4.17
1.72
-0.82
-2.63
-3.80
-5.11
-7.82
-12.80
-19.57
-26.55
-31.24
-32.24
-28.93
-22.24
-13.58
-4.62
3.13
8.39
9.93
7.59
2.08
-3.85
-7.17
-5.18
2.50
13.65
24.71
31.69
32.60
27.26
17.34
5.01
-8.15
-20.75
-31.57
-38.25
-38.22
-29.50
-13.08
7.16
24.87
34.19
32.63
21.80
6.75
-7.00
-15.94
-20.26
-22.14
-24.20
-27.15
-29.48
-29.54
-26.34
-21.16
-16.19
-13.90
-15.27
-19.24
-23.32
-23.92
-18.65
-6.85
9.27
25.56
37.74
43.49
43.27
39.55
35.69
32.97
30.78
26.95
19.85
10.03
0.29
-5.92
-6.89
-3.14
1.87
4.59
2.52
-4.00
-12.08
-18.20
-19.69
-16.54
-10.66
-5.48
-3.49
-5.58
-10.67
-16.12
-19.74
-19.87
-16.67
-11.43
-6.15
-2.08
0.77
3.05
5.75
8.95
12.10
14.24
15.01
14.95
15.44
17.65
21.17
24.66
25.68
22.66
15.31
5.48
-4.22
-11.49
-15.34
-16.28
-15.34
-13.83
-12.15
-10.32
-8.24
-5.88
-3.83
-2.63
-3.03
-5.10
-8.43
-12.04
-14.54
-14.95
-12.89
-8.88
-4.35
-1.58
-1.93
-5.65
-10.79
-13.99
-12.46
-5.04
6.48
18.68
27.38
30.20
27.05
20.23
13.14
8.74
8.43
11.34
15.08
16.84
14.96
9.69
3.33
-0.87
-0.94
3.07
8.45
11.91
11.39
7.78
3.99
3.36
7.31
13.68
18.54
17.58
8.85
-6.33
-24.13
-40.11
-51.24
-55.83
-54.05
-46.50
-34.36
-19.14
-3.18
10.74
20.15
23.78
22.28
17.21
10.63
4.17
-1.00
-3.53
-2.54
2.41
9.78
16.78
19.64
16.14
6.77
-4.96
-14.29
-17.98
-15.18
-8.06
-0.07
5.70
8.52
9.34
9.38
9.66
9.75
9.06
7.21
5.14
4.05
4.94
7.14
8.14
5.47
-2.49
-14.61
-27.39
-36.40
-38.53
-33.59
-23.84
-12.91
-3.08
5.09
11.94
17.21
19.20
15.85
6.28
-7.30
-20.22
-27.29
-25.76
-16.03
-1.45
13.44
25.17
31.85
33.50
30.50
23.88
14.79
5.51
-1.21
-3.08
0.94
9.05
18.09
24.41
25.85
21.97
13.91
3.93
-5.94
-13.68
-18.38
-19.77
-18.69
-16.85
-16.02
-17.78
-22.12
-27.47
-31.13
-30.99
-26.21
-18.30
-9.97
-3.67
-0.63
-0.29
-1.20
-1.79
-1.16
0.91
3.97
7.10
9.59
10.40
9.07
5.56
0.88
-3.60
-6.57
-6.92
-4.73
-0.10
6.08
13.23
20.07
24.95
26.26
22.79
15.24
5.91
-1.84
-5.51
-4.12
1.03
7.17
11.88
13.92
13.72
12.20
10.31
8.00
5.20
2.01
-0.48
-0.61
2.62
9.37
17.59
24.75
28.09
26.26
19.80
10.47
1.15
-6.23
-10.20
-10.95
-9.29
-6.36
-3.63
-2.09
-2.10
-2.90
-3.46
-2.56
0.27
4.42
8.27
10.05
9.01
5.14
-0.18
-6.02
-11.75
-17.71
-24.04
-30.06
-34.31
-34.71
-31.07
-24.86
-19.46
-17.41
-19.39
-23.58
-26.67
-26.46
-22.34
-16.02
-9.60
-4.46
-0.28
4.09
9.50
15.66
20.86
23.41
22.16
17.83
11.66
5.36
0.16
-3.55
-5.23
-4.94
-2.66
0.86
4.60
7.29
8.36
8.16
7.28
6.54
5.49
3.53
-0.02
-4.72
-8.80
-10.32
-8.19
-3.04
3.82
10.58
16.58
21.67
25.90
28.68
28.84
26.09
20.87
15.07
9.99
6.03
2.08
-3.70
-11.89
-21.65
-30.28
-34.91
-33.57
-26.66
-16.23
-5.26
3.16
7.63
7.95
5.44
1.47
-2.85
-7.14
-11.11
-14.14
-14.91
-11.57
-3.80
7.12
17.63
23.96
23.41
15.86
4.26
-7.29
-14.79
-16.80
-14.13
-9.76
-6.79
-6.75
-8.80
-9.77
-6.58
2.10
13.82
23.57
26.19
19.13
4.61
-11.72
-23.42
-27.05
-22.83
-14.35
-5.32
2.14
8.10
13.78
19.17
23.28
24.08
20.72
13.70
5.07
-2.75
-7.94
-8.89
-4.95
4.16
17.08
31.00
41.71
45.01
39.09
25.05
7.26
-9.52
-21.40
-27.68
-29.83
-30.14
-29.67
-27.92
-23.96
-17.29
-9.37
-2.74
-0.05
-2.05
-7.23
-13.03
-16.53
-16.52
-13.05
-7.62
-1.65
3.68
7.43
9.02
7.41
2.44
-5.40
-13.79
-19.38
-18.78
-9.89
6.71
27.74
47.54
60.54
62.27
52.14
33.03
10.99
-7.50
-18.44
-21.00
-17.67
-11.87
-6.84
-3.94
-3.29
-4.84
-8.33
-14.02
-21.19
-28.36
-33.21
-33.96
-30.25
-23.37
-15.89
-9.71
-5.91
-4.01
-3.24
-2.77
-1.85
0.64
5.91
14.15
24.54
34.22
40.14
39.67
32.74
21.82
10.45
1.96
-2.58
-3.57
-2.54
-0.30
3.16
7.91
13.21
16.52
15.39
8.50
-2.67
-15.02
-24.98
-30.23
-30.50
-26.98
-21.70
-15.85
-10.15
-4.77
-0.23
2.52
2.45
-1.51
-9.20
-19.58
-29.60
-35.82
-35.25
-27.31
-14.82
-2.93
2.87
0.50
-7.64
-15.54
-17.20
-10.03
4.04
19.64
31.79
37.79
38.27
35.20
30.28
23.80
15.77
6.94
-0.45
-3.02
1.10
11.33
23.50
31.90
31.77
21.75
5.37
-10.78
-19.51
-16.80
-3.12
16.47
35.18
47.48
51.03
47.08
38.83
29.38
20.20
11.37
2.36
-7.06
-16.22
-23.78
-28.29
-29.31
-27.23
-23.59
-19.97
-17.56
-16.55
-15.85
-14.53
-12.00
-9.18
-7.34
-7.38
-9.24
-11.94
-14.68
-17.16
-19.87
-22.84
-25.30
-25.57
-22.46
-15.93
-7.83
-0.84
3.23
3.93
2.93
2.24
3.17
5.24
6.86
6.92
5.63
4.95
6.80
12.01
19.19
25.44
28.06
26.10
21.57
17.82
17.92
21.80
26.15
25.94
17.58
1.71
-17.17
-32.93
-41.24
-41.42
-36.35
-29.37
-22.64
-16.71
-11.07
-6.15
-3.26
-3.64
-6.86
-10.68
-12.11
-9.56
-3.79
2.70
7.31
9.16
8.95
8.21
8.32
9.60
12.03
15.01
18.20
20.66
21.49
20.02
16.62
12.56
9.15
7.17
6.38
6.42
6.91
7.95
9.31
9.79
7.95
3.13
-3.35
-8.62
-9.28
-3.95
5.77
16.11
22.98
24.23
19.79
11.52
1.76
-7.17
-13.30
-15.34
-12.80
-7.18
-1.03
2.53
1.94
-2.01
-6.41
-8.41
-6.96
-3.35
-0.76
-1.49
-5.94
-11.95
-16.49
-17.22
-14.17
-9.58
-5.98
-5.33
-7.37
-10.64
-13.27
-14.47
-15.33
-17.37
-21.94
-28.26
-34.32
-37.56
-36.92
-33.63
-30.49
-30.48
-34.03
-38.83
-40.39
-34.97
-20.97
-0.57
21.63
40.23
50.47
50.27
40.15
23.60
5.43
-8.97
-16.03
-14.85
-6.76
5.13
18.13
29.76
38.93
44.77
46.20
42.49
33.57
21.33
8.72
-0.79
-5.49
-5.79
-3.99
-2.60
-3.10
-5.47
-8.33
-10.52
-10.91
-9.44
-6.51
-3.19
-1.47
-3.38
-10.41
-21.79
-34.30
-42.21
-40.38
-27.20
-6.37
14.20
26.60
26.35
15.38
-0.01
-12.45
-17.71
-16.33
-11.81
-8.23
-7.16
-7.79
-7.81
-6.03
-2.92
-0.80
-1.69
-5.38
-9.56
-10.20
-4.24
9.14
27.67
47.09
62.79
71.49
72.43
66.69
56.52
43.85
30.07
15.96
2.68
-7.84
-13.71
-13.30
-6.89
3.58
14.67
22.70
24.97
20.56
10.76
-1.72
-13.30
-20.64
-21.28
-15.05
-3.97
7.49
13.82
10.99
-1.43
-19.23
-35.33
-42.69
-38.03
-22.98
-3.10
15.07
27.16
31.60
29.42
22.54
12.88
2.20
-7.78
-15.09
-18.10
-16.51
-11.75
-6.59
-4.17
-6.23
-12.16
-19.50
-25.06
-26.57
-23.72
-18.66
-14.19
-12.42
-13.61
-15.82
-16.39
-13.50
-7.36
0.56
7.85
13.04
15.92
17.03
17.52
17.87
17.94
17.00
14.69
11.17
7.48
5.01
4.45
5.46
6.55
6.36
4.33
1.43
-0.31
0.52
3.61
6.70
7.19
3.55
-3.22
-10.22
-14.81
-15.98
-14.93
-13.81
-14.44
-16.90
-20.53
-24.59
-28.76
-32.78
-35.65
-35.55
-30.54
-20.98
-9.51
-0.81
1.64
-1.65
-6.47
-6.43
1.82
16.60
31.14
37.91
33.34
20.19
6.66
1.13
8.21
26.05
48.31
67.21
77.41
77.30
68.30
53.34
35.12
16.54
0.39
-10.82
-15.56
-14.21
-9.40
-5.23
-5.14
-11.00
-21.83
-34.69
-45.77
-51.97
-52.29
-47.44
-39.83
-31.77
-25.02
-19.79
-15.23
-10.02
-2.97
6.30
17.85
30.93
44.78
57.56
67.18
71.25
68.26
58.81
45.17
30.86
18.86
10.50
5.05
0.77
-3.96
-9.71
-15.53
-20.19
-22.81
-24.08
-25.29
-27.85
-31.97
-36.41
-39.13
-38.30
-33.91
-27.90
-23.48
-23.33
-28.09
-35.57
-41.49
-42.45
-37.38
-28.47
-19.26
-12.77
-9.75
-9.04
-8.63
-7.57
-6.54
-6.29
-7.00
-6.87
-3.63
4.22
15.73
27.32
35.15
36.37
31.29
22.39
13.37
7.27
5.71
8.48
13.56
18.19
19.51
16.20
8.64
-1.03
-10.18
-16.95
-21.03
-23.41
-24.22
-22.64
-16.60
-5.08
10.31
25.24
34.01
32.71
20.93
2.52
-17.13
-32.89
-42.33
-45.93
-45.56
-43.30
-39.95
-35.14
-27.79
-17.63
-5.02
9.01
23.00
36.00
46.77
54.43
57.72
55.81
48.51
37.02
24.45
14.29
9.69
10.97
16.02
20.99
22.41
19.08
11.97
3.37
-5.05
-12.59
-19.75
-26.32
-30.89
-31.32
-25.50
-13.63
1.15
13.64
19.53
17.17
9.22
0.91
-3.11
-1.18
3.87
6.91
3.52
-6.98
-21.21
-33.65
-39.54
-37.99
-31.39
-24.04
-18.74
-15.89
-13.87
-10.71
-6.22
-1.25
3.17
7.52
13.02
20.53
29.08
35.15
34.95
26.64
12.12
-3.70
-15.19
-19.44
-17.44
-13.06
-10.25
-10.26
-11.54
-11.15
-7.26
-0.35
6.93
11.91
13.71
13.24
12.55
13.01
14.96
17.65
19.91
21.04
20.60
18.38
14.18
8.24
1.59
-3.82
-6.14
-4.90
-1.47
1.39
1.27
-2.82
-9.13
-14.35
-15.55
-11.72
-4.38
3.39
8.28
9.21
7.11
4.48
3.57
5.07
7.73
9.61
9.56
7.42
4.50
2.12
1.09
0.86
-0.03
-3.06
-9.04
-17.34
-26.52
-34.14
-38.56
-38.78
-35.17
-29.14
-22.21
-15.98
-10.88
-6.71
-2.78
1.26
5.28
8.80
11.29
13.05
14.65
16.65
18.73
19.71
17.96
12.97
6.02
-0.38
-3.35
-2.06
2.15
6.08
7.01
4.22
-0.66
-4.87
-6.84
-6.80
-6.65
-7.93
-10.39
-12.13
-10.53
-4.83
3.61
11.39
15.71
15.58
12.71
10.04
10.15
13.53
18.27
21.65
21.58
17.76
11.59
5.68
2.20
2.19
5.45
10.41
15.16
17.57
16.25
10.25
0.17
-12.12
-23.68
-31.34
-33.05
-28.92
-20.86
-11.85
-4.63
-0.96
-0.85
-3.44
-6.91
-9.55
-9.83
-7.22
-2.18
3.81
8.78
11.26
10.58
7.40
2.96
-1.17
-3.68
-3.45
0.32
7.31
16.10
23.74
27.18
24.09
14.25
0.05
-15.19
-28.10
-37.34
-43.23
-47.08
-49.22
-48.80
-44.11
-33.65
-17.92
0.89
18.65
31.33
36.38
33.77
25.75
15.43
5.81
-2.04
-8.44
-14.73
-21.24
-27.06
-29.65
-26.00
-14.37
4.43
26.14
44.64
53.73
50.01
34.85
13.80
-5.08
-15.77
-16.32
-10.05
-2.08
3.43
5.93
7.67
10.90
15.69
19.00
17.24
8.73
-3.76
-14.67
-18.89
-14.78
-5.24
4.79
10.88
12.37
11.27
10.60
12.06
15.35
19.16
22.08
23.96
25.09
25.81
25.04
20.78
11.33
-3.64
-21.51
-38.13
-48.60
-50.19
-42.98
-30.26
-16.64
-5.82
0.65
4.33
7.44
11.63
15.76
16.97
12.32
1.41
-12.38
-24.06
-28.70
-24.75
-14.31
-2.19
6.60
9.51
7.11
2.65
-0.44
0.00
3.22
7.19
10.20
12.21
15.39
21.85
32.52
45.01
54.73
56.87
49.45
34.65
17.61
4.15
-3.02
-4.67
-4.57
-6.17
-11.09
-18.78
-26.72
-32.95
-36.01
-35.94
-32.91
-27.30
-19.18
-9.04
1.83
11.63
18.26
20.88
19.54
15.67
10.87
6.30
2.60
-0.60
-3.31
-6.03
-8.95
-12.50
-16.96
-22.35
-28.08
-32.57
-34.38
-32.40
-26.85
-18.61
-8.85
1.25
10.54
17.06
18.83
13.90
2.65
-12.27
-25.84
-33.45
-33.07
-25.54
-14.21
-2.13
8.51
17.44
24.45
28.49
27.75
20.34
6.92
-9.68
-24.52
-33.36
-34.08
-27.12
-14.76
0.55
16.34
30.76
41.69
47.43
47.27
42.24
34.80
28.02
24.56
25.10
28.75
33.10
35.89
35.63
31.86
24.98
15.66
5.05
-6.32
-17.49
-28.09
-37.64
-45.66
-51.92
-55.97
-57.98
-58.12
-56.69
-53.49
-48.06
-40.29
-30.63
-20.74
-12.55
-7.69
-6.00
-5.81
-4.53
-0.26
6.97
15.43
22.19
25.31
24.50
21.81
20.04
21.48
26.17
31.29
33.15
28.64
17.85
3.69
-8.79
-15.18
-13.80
-5.94
4.57
13.61
18.19
17.77
13.33
6.51
-1.34
-9.63
-17.71
-24.76
-29.13
-29.78
-26.45
-20.35
-13.31
-6.58
-0.80
4.49
9.47
13.68
15.54
13.71
8.36
1.18
-4.57
-6.22
-2.31
5.98
16.23
25.50
31.41
33.17
30.81
25.60
18.96
12.59
7.25
2.95
-0.94
-5.48
-10.90
-16.96
-22.41
-26.17
-27.06
-25.37
-22.17
-18.80
-16.56
-15.40
-14.41
-11.92
-7.29
-0.86
5.57
9.65
10.16
7.25
3.08
-0.00
-0.12
2.39
5.79
8.33
9.17
9.29
9.87
11.94
14.73
16.76
16.49
13.60
9.65
6.39
5.16
5.04
4.25
0.79
-5.18
-11.28
-13.83
-9.90
0.32
13.93
25.67
31.33
28.95
19.99
8.19
-2.51
-9.67
-13.89
-17.07
-21.66
-28.16
-34.78
-38.17
-35.60
-27.12
-15.43
-5.45
-0.94
-2.71
-8.19
-12.83
-13.20
-8.59
-1.89
3.28
4.05
0.70
-4.58
-9.15
-11.49
-12.03
-11.48
-10.67
-8.98
-5.61
0.45
8.77
17.81
25.71
30.34
30.86
27.22
20.42
12.02
4.10
-1.92
-5.47
-6.88
-7.53
-8.21
-9.37
-10.38
-10.61
-9.43
-6.46
-2.23
2.79
7.03
9.03
7.43
2.19
-4.94
-11.12
-13.21
-9.95
-1.77
8.69
18.51
25.36
28.44
28.25
25.44
20.77
14.57
7.66
1.36
-2.39
-2.20
2.02
8.60
13.87
14.26
7.17
-6.69
-23.79
-38.65
-46.31
-44.78
-35.16
-21.25
-6.74
5.26
13.47
17.69
18.36
16.29
12.24
7.39
2.41
-2.12
-6.50
-11.10
-15.96
-20.47
-23.14
-22.73
-18.90
-12.85
-6.37
-1.31
1.44
2.56
3.65
6.72
12.57
21.08
30.30
37.64
40.48
37.57
29.98
20.27
12.06
7.54
7.24
9.23
10.78
9.63
5.41
-0.06
-4.58
-6.35
-5.60
-4.20
-4.48
-7.30
-11.15
-13.13
-10.65
-3.89
4.44
9.99
9.50
2.52
-8.15
-17.60
-21.75
-18.37
-8.47
5.01
18.01
26.52
28.14
22.46
11.27
-2.30
-14.53
-22.97
-26.48
-25.47
-20.97
-13.67
-4.50
5.41
13.86
18.24
16.01
6.65
-7.71
-23.03
-34.49
-38.92
-35.16
-24.96
-11.22
2.98
15.46
25.60
33.70
40.33
44.89
46.02
42.08
32.56
19.33
6.17
-2.58
-4.58
-0.52
5.59
8.58
5.04
-5.19
-18.65
-31.14
-39.40
-43.47
-44.93
-45.77
-45.90
-43.51
-36.52
-24.37
-9.49
4.87
15.55
21.85
24.80
26.01
26.14
24.79
21.56
16.67
11.97
8.93
8.16
8.90
9.53
9.54
9.22
9.52
10.57
11.50
10.77
7.29
1.42
-5.56
-11.78
-16.25
-18.77
-20.27
-21.34
-22.30
-22.70
-21.40
-17.57
-10.50
-0.66
10.65
20.76
26.59
25.95
18.78
7.46
-4.53
-13.30
-16.88
-15.10
-9.60
-3.03
2.83
7.26
10.66
13.36
15.56
16.66
16.34
14.97
13.11
11.34
8.96
4.71
-2.97
-14.16
-27.07
-38.30
-44.15
-42.82
-35.00
-23.86
-13.34
-6.69
-5.53
-9.50
-16.39
-22.16
-22.63
-14.70
1.14
20.59
36.71
42.74
35.81
18.14
-3.68
-22.29
-32.23
-32.73
-26.56
-17.57
-8.64
0.09
9.38
19.86
30.15
37.10
37.31
29.53
16.04
2.12
-5.80
-3.85
7.78
24.14
37.98
43.16
37.05
21.99
2.99
-14.01
-25.48
-30.40
-30.47
-28.05
-24.79
-20.95
-15.80
-8.89
-0.27
8.89
16.90
22.48
25.18
25.52
24.00
20.98
15.90
8.14
-2.46
-14.56
-25.46
-32.05
-32.01
-25.77
-15.93
-6.92
-2.50
-4.45
-11.64
-20.15
-25.37
-23.63
-14.22
0.86
16.89
29.10
34.28
32.50
26.45
20.02
16.75
17.87
22.41
27.51
30.45
29.84
25.75
20.02
14.54
11.23
10.66
12.46
15.49
18.39
20.08
19.63
16.55
9.68
-1.18
-15.53
-31.18
-44.87
-53.25
-54.66
-50.32
-42.93
-36.01
-31.64
-30.04
-29.33
-27.29
-22.63
-15.37
-7.27
-0.25
3.77
4.12
1.53
-2.19
-5.02
-6.21
-6.17
-6.62
-8.02
-9.23
-7.32
-0.05
11.98
25.05
33.12
32.12
21.80
6.72
-6.63
-12.88
-10.47
-2.36
6.81
12.52
12.87
8.05
0.23
-7.86
-13.33
-13.62
-7.65
3.93
18.37
32.13
41.79
45.65
43.72
37.51
29.38
20.86
13.19
6.50
0.69
-4.71
-9.96
-14.81
-19.02
-21.91
-23.12
-22.34
-20.23
-17.66
-15.40
-13.74
-11.90
-9.16
-4.78
0.91
6.97
11.86
14.31
14.03
11.50
8.19
5.54
4.95
6.57
9.60
11.82
10.96
5.71
-3.65
-14.79
-24.67
-30.87
-33.23
-33.49
-33.88
-35.10
-35.39
-31.67
-21.19
-4.46
15.05
31.80
41.28
41.92
34.76
22.79
8.95
-3.98
-13.81
-18.50
-16.50
-8.04
4.57
16.65
23.50
22.06
12.95
-0.48
-13.55
-22.45
-25.88
-24.54
-20.64
-15.98
-12.03
-9.03
-6.62
-3.94
-0.37
3.79
7.74
9.63
8.52
4.56
-0.48
-4.48
-6.35
-6.69
-7.87
-11.67
-18.02
-24.07
-25.95
-21.04
-9.50
5.38
19.85
31.21
39.44
45.67
50.73
54.15
53.96
48.24
36.18
19.12
-0.53
-19.28
-33.58
-40.60
-38.98
-29.75
-16.32
-3.75
3.68
4.27
-0.00
-4.86
-6.34
-2.70
4.46
12.10
17.19
18.60
16.84
13.44
9.94
6.98
4.81
3.00
1.26
-1.06
-4.60
-9.32
-14.26
-17.78
-18.65
-16.49
-12.44
-8.04
-4.20
-0.96
2.86
8.40
15.98
24.33
31.22
34.02
31.07
22.33
9.12
-5.70
-19.57
-30.37
-37.28
-40.27
-40.15
-37.48
-32.40
-24.94
-15.18
-4.33
5.86
13.33
16.81
16.07
12.27
7.64
4.41
4.54
8.52
15.53
23.63
30.17
32.95
30.73
24.38
15.98
8.65
4.77
5.37
9.67
14.77
17.51
14.92
6.00
-8.31
-24.67
-39.07
-47.85
-48.72
-41.96
-29.63
-15.66
-4.05
1.59
-0.23
-8.46
-19.93
-30.17
-35.35
-33.66
-26.25
-16.20
-7.42
-2.62
-2.21
-4.71
-7.54
-8.81
-7.69
-4.82
-1.44
1.64
4.20
7.08
11.04
16.58
22.88
28.94
33.74
36.89
39.16
41.24
43.08
42.97
38.81
28.90
13.87
-2.77
-16.69
-24.28
-25.04
-21.54
-17.90
-16.99
-19.06
-21.74
-21.50
-16.08
-5.66
6.97
18.05
24.57
26.08
24.26
22.02
21.66
23.51
26.34
28.14
27.79
25.45
22.29
19.38
16.79
13.65
8.74
2.12
-4.98
-10.94
-14.67
-16.57
-17.91
-20.09
-23.34
-26.95
-29.26
-29.26
-26.77
-22.74
-18.87
-16.78
-17.84
-22.18
-29.03
-36.14
-41.15
-41.68
-36.43
-25.94
-12.04
2.52
15.33
24.63
30.17
32.52
32.70
31.58
29.40
26.09
21.76
16.86
11.88
7.24
2.84
-1.75
-6.62
-12.14
-17.99
-24.15
-29.84
-34.16
-35.73
-33.39
-27.07
-17.91
-8.86
-2.53
-0.74
-2.66
-5.55
-6.19
-2.68
4.33
12.41
18.42
20.51
18.42
13.33
6.92
1.00
-2.73
-2.85
2.01
11.97
25.75
39.83
49.52
50.79
42.09
25.94
7.52
-6.94
-13.65
-12.43
-6.82
-2.08
-1.99
-7.78
-16.77
-24.94
-28.12
-24.42
-14.62
-1.18
12.68
24.48
32.69
37.28
38.66
37.23
32.95
25.15
13.71
-0.65
-15.22
-26.83
-32.55
-31.69
-26.34
-20.59
-19.00
-24.08
-35.64
-50.09
-62.38
-67.41
-62.26
-47.04
-24.58
0.40
23.15
39.98
49.56
52.56
50.66
45.80
38.77
30.08
19.98
9.63
0.71
-5.19
-7.23
-5.95
-2.76
0.21
1.69
1.10
-0.71
-2.54
-3.50
-3.34
-2.57
-1.71
-1.42
-1.71
-2.64
-3.78
-4.52
-3.64
-0.14
6.01
13.19
18.40
19.34
15.44
8.64
2.37
-1.00
-1.17
-0.05
0.47
-0.12
0.30
4.42
13.61
26.10
37.47
43.16
40.32
29.93
14.95
-0.88
-15.36
-27.79
-38.35
-47.30
-53.77
-56.44
-53.56
-44.32
-29.17
-10.08
9.41
25.76
35.72
38.16
33.35
23.18
10.28
-2.88
-14.39
-23.32
-29.03
-31.81
-31.59
-28.40
-22.18
-13.42
-3.75
4.72
9.69
10.88
9.69
9.41
12.84
20.60
30.51
38.22
39.99
34.56
24.56
14.38
8.18
7.29
9.72
12.02
11.01
6.07
-1.59
-9.55
-16.19
-21.04
-24.56
-27.53
-29.80
-31.14
-31.07
-29.90
-28.36
-27.01
-25.67
-22.55
-15.65
-3.56
12.45
29.16
42.28
48.61
47.74
41.69
33.57
25.06
16.49
6.47
-5.48
-18.61
-30.50
-38.25
-40.51
-37.61
-31.98
-25.92
-21.28
-18.34
-16.46
-14.76
-11.92
-7.18
0.17
9.34
18.58
25.16
26.50
21.87
12.44
1.58
-7.41
-11.94
-11.64
-8.05
-4.22
-3.26
-7.07
-16.30
-29.12
-42.55
-52.73
-56.94
-54.47
-47.01
-37.75
-29.01
-21.42
-13.55
-3.74
9.02
23.72
38.14
50.50
59.65
65.96
69.73
71.18
69.51
63.68
53.17
38.47
22.00
6.85
-3.55
-7.26
-4.06
3.82
12.96
19.95
22.46
20.33
14.98
8.68
2.65
-2.96
-9.20
-16.68
-24.63
-30.82
-32.27
-27.65
-17.80
-6.45
1.55
2.56
-4.14
-15.02
-24.45
-26.89
-20.57
-7.74
6.03
15.53
18.62
17.07
15.31
16.95
23.00
30.54
35.21
33.56
25.05
12.38
-0.59
-10.27
-15.16
-15.32
-11.99
-6.59
-0.93
2.78
2.97
-1.07
-8.03
-15.71
-21.61
-24.09
-23.01
-19.08
-13.88
-8.54
-4.16
-1.17
-0.10
-0.79
-2.76
-5.43
-8.11
-10.90
-13.90
-17.57
-21.62
-25.22
-26.86
-24.55
-16.76
-2.74
16.22
36.41
51.82
56.60
47.61
26.52
0.19
-22.75
-35.13
-34.88
-25.52
-13.84
-6.07
-4.67
-8.29
-13.02
-15.54
-14.26
-9.94
-4.45
0.76
4.89
8.02
9.93
10.06
7.69
3.08
-2.65
-8.06
-12.31
-16.11
-20.86
-27.62
-35.29
-41.23
-41.98
-35.45
-22.43
-5.81
10.40
23.34
31.86
36.83
39.62
40.96
40.70
38.20
33.82
28.67
25.05
24.81
28.09
32.98
35.97
34.20
27.01
16.94
7.65
2.22
0.84
1.01
-0.28
-4.56
-10.31
-14.54
-14.40
-9.91
-3.53
1.40
2.68
0.48
-3.38
-6.58
-8.44
-9.36
-10.34
-11.50
-12.05
-10.99
-7.68
-2.83
2.39
6.48
8.50
7.86
4.35
-1.30
-7.86
-12.80
-14.14
-10.69
-3.58
3.84
7.65
5.09
-3.26
-14.02
-21.91
-22.84
-15.56
-2.49
11.81
23.22
29.50
31.33
30.24
27.57
22.99
15.57
4.82
-8.11
-19.80
-26.60
-25.87
-18.14
-6.37
4.90
11.96
13.21
9.03
1.90
-5.84
-11.82
-14.81
-14.71
-12.98
-12.22
-14.75
-21.66
-31.36
-40.91
-47.00
-48.07
-44.85
-39.24
-33.08
-26.25
-17.73
-6.29
7.35
21.30
33.36
42.35
49.06
54.59
59.31
61.58
59.27
50.76
37.13
21.31
6.35
-5.75
-15.45
-23.25
-29.17
-31.34
-27.74
-17.58
-2.30
14.13
27.81
35.75
37.17
32.77
23.97
12.63
1.02
-7.84
-11.49
-8.58
-0.96
7.32
11.43
7.96
-3.29
-19.24
-34.43
-43.82
-43.92
-34.63
-18.64
-0.27
15.71
25.91
28.53
24.48
15.98
6.42
-1.58
-6.95
-10.17
-13.13
-17.35
-23.62
-30.98
-37.70
-41.48
-40.74
-35.49
-27.02
-18.14
-11.40
-8.92
-11.17
-16.94
-23.54
-27.62
-27.13
-21.61
-12.87
-3.13
6.03
14.44
23.00
31.93
40.25
45.59
46.65
43.66
39.13
35.69
34.40
34.03
31.59
24.91
13.93
1.75
-7.61
-10.89
-7.56
0.00
8.41
14.27
16.11
13.69
8.18
0.96
-6.55
-12.45
-15.43
-14.61
-10.51
-4.47
1.27
4.60
4.24
0.03
-6.74
-14.11
-19.15
-19.64
-14.13
-3.60
9.07
19.66
24.09
20.94
11.66
0.53
-8.43
-12.98
-13.95
-13.88
-14.50
-15.73
-15.28
-11.61
-5.17
0.45
0.88
-5.91
-17.69
-28.31
-31.67
-24.84
-10.96
2.66
8.35
2.83
-10.97
-25.68
-33.11
-29.27
-15.14
3.49
20.10
30.23
33.16
31.46
28.37
26.40
25.52
24.14
20.31
13.78
6.44
1.23
0.60
4.42
10.87
16.97
21.14
23.42
24.63
25.17
23.53
17.77
6.71
-7.77
-21.65
-30.65
-32.53
-28.39
-21.44
-15.28
-11.18
-8.68
-6.00
-2.04
2.84
7.40
9.99
9.80
7.01
2.58
-2.93
-8.93
-15.05
-21.08
-26.32
-30.43
-32.68
-32.81
-30.37
-25.19
-17.85
-9.41
-1.92
2.72
3.07
-0.43
-5.54
-8.88
-6.97
1.88
16.87
34.33
49.74
58.74
59.05
50.96
36.74
20.11
4.61
-6.88
-13.34
-14.85
-13.11
-10.15
-7.56
-6.25
-5.85
-5.90
-5.51
-4.82
-4.62
-6.06
-9.62
-14.32
-18.29
-19.14
-16.05
-9.90
-3.56
0.02
-0.43
-3.81
-6.84
-6.50
-1.33
6.77
14.40
18.35
17.88
15.20
13.21
14.07
16.92
19.40
18.91
14.83
8.61
2.87
-0.49
-2.10
-3.71
-7.38
-13.22
-19.55
-23.59
-23.29
-19.13
-13.43
-9.90
-10.71
-16.19
-23.80
-29.87
-31.05
-26.05
-16.39
-4.96
4.61
10.65
13.21
13.76
13.86
13.98
14.08
13.85
14.22
16.14
20.50
26.16
30.39
29.92
22.58
9.79
-4.50
-14.79
-17.19
-11.08
0.25
11.52
18.14
17.78
11.56
2.40
-5.59
-9.72
-8.64
-2.92
5.81
15.71
24.55
30.37
31.09
25.68
14.52
-0.59
-16.15
-28.36
-33.90
-31.79
-23.00
-11.01
0.39
8.45
12.11
12.96
13.29
14.95
17.83
20.20
19.36
13.88
4.61
-5.80
-13.83
-17.89
-18.52
-18.40
-19.72
-22.83
-25.41
-24.08
-17.14
-5.79
5.24
10.83
8.23
-1.30
-13.05
-21.87
-24.76
-22.95
-19.82
-18.69
-19.75
-20.19
-16.55
-7.29
4.97
15.20
18.42
13.32
2.48
-8.76
-15.14
-14.63
-8.36
-0.10
6.56
9.26
8.16
4.72
1.22
0.15
2.65
8.99
17.46
25.92
32.17
35.47
36.36
35.64
33.84
30.12
23.29
12.37
-1.84
-17.68
-32.92
-45.44
-54.07
-57.63
-55.56
-47.56
-34.96
-20.66
-8.29
-0.66
2.02
1.79
2.33
5.83
12.46
19.84
24.96
25.98
22.92
17.87
12.68
8.91
6.52
4.92
3.18
0.92
-1.02
-1.01
3.27
12.75
26.90
42.30
53.88
56.89
49.01
32.24
11.73
-5.92
-16.54
-19.61
-18.35
-16.78
-17.09
-18.90
-19.68
-17.43
-11.81
-4.44
2.65
8.08
11.62
13.60
13.68
11.01
4.47
-5.55
-16.95
-26.52
-31.63
-31.91
-28.63
-24.12
-19.56
-14.59
-7.61
2.18
13.70
24.06
29.36
27.40
18.23
4.98
-8.48
-19.42
-27.35
-34.13
-41.91
-51.28
-60.24
-65.54
-64.37
-56.25
-43.39
-29.22
-16.81
-7.33
-0.41
5.14
10.14
14.78
19.01
22.35
24.87
26.47
27.43
27.76
27.79
27.57
27.00
25.88
23.82
21.24
18.86
17.98
19.34
22.48
25.70
26.90
25.08
20.71
15.83
12.01
9.78
8.27
5.84
1.58
-4.46
-10.96
-16.39
-18.97
-17.89
-12.78
-3.95
7.19
18.65
27.59
31.91
30.34
23.54
13.76
3.77
-4.17
-9.61
-13.35
-16.88
-20.71
-24.30
-25.83
-23.65
-17.07
-7.23
2.92
10.08
11.45
6.44
-3.12
-13.61
-21.66
-25.90
-27.33
-28.49
-30.83
-33.92
-34.75
-29.92
-18.04
-1.41
14.44
23.88
24.18
17.19
8.02
1.57
0.28
3.11
7.28
9.85
9.99
8.32
6.27
4.97
4.95
6.36
9.01
12.94
17.91
23.63
29.20
33.65
35.51
33.38
25.98
13.00
-3.91
-21.96
-37.40
-47.46
-50.93
-48.37
-41.63
-33.06
-24.97
-19.07
-16.17
-15.90
-16.77
-16.61
-13.15
-5.84
4.57
15.92
26.54
35.41
42.62
48.21
51.27
50.34
44.24
33.31
19.73
7.18
-1.30
-4.04
-1.94
2.00
4.21
1.68
-6.30
-18.02
-29.97
-38.43
-40.80
-36.90
-28.62
-19.01
-11.20
-6.86
-6.27
-8.50
-12.18
-16.16
-19.22
-20.38
-18.42
-13.00
-4.79
4.09
11.29
15.25
16.41
17.29
20.66
27.92
37.14
43.90
42.94
32.09
13.67
-5.99
-19.51
-22.06
-13.57
1.61
17.94
30.77
38.49
41.81
41.49
37.53
28.46
13.42
-6.27
-26.52
-41.71
-47.23
-41.62
-27.46
-10.07
4.52
12.57
13.31
8.76
1.96
-4.81
-10.76
-16.38
-21.82
-26.60
-28.61
-25.85
-17.64
-5.95
5.10
11.41
10.89
4.97
-3.05
-9.65
-13.40
-15.36
-17.36
-20.80
-25.40
-29.67
-31.58
-29.82
-23.66
-13.14
1.20
18.06
34.68
47.89
54.11
51.78
41.57
26.61
11.06
-1.67
-9.24
-11.11
-7.62
-0.48
7.77
13.95
15.31
10.95
2.12
-8.30
-17.88
-25.11
-29.98
-32.52
-31.58
-25.10
-11.38
8.24
29.07
43.67
45.88
33.93
12.60
-8.64
-20.75
-18.92
-5.66
11.92
25.50
30.56
27.59
20.70
15.01
13.08
14.57
16.68
16.61
12.91
6.33
-1.32
-8.02
-12.00
-12.45
-8.66
-0.91
9.72
20.95
29.87
33.90
31.02
20.62
3.34
-17.62
-37.62
-51.20
-54.16
-45.90
-29.60
-11.73
1.28
5.26
0.63
-8.78
-17.68
-21.88
-20.34
-14.53
-7.40
-0.85
4.36
9.42
15.47
22.99
31.04
37.23
39.56
36.99
31.03
24.49
20.25
19.18
19.37
17.29
9.50
-4.30
-21.46
-36.86
-45.99
-46.94
-41.39
-33.76
-28.67
-29.28
-35.67
-45.52
-54.53
-58.84
-56.21
-46.55
-32.23
-16.22
-1.89
8.89
15.28
17.94
18.01
16.42
14.35
12.39
11.63
12.62
15.87
20.91
26.77
32.08
35.59
37.21
37.39
37.53
38.61
40.99
43.57
44.00
39.82
29.82
15.06
-1.85
-17.12
-28.09
-33.89
-35.35
-34.22
-31.49
-27.40
-21.54
-14.76
-8.73
-5.93
-8.01
-14.46
-23.20
-31.01
-35.64
-35.86
-32.17
-25.56
-17.27
-9.07
-2.43
1.04
1.08
-1.31
-3.37
-2.11
4.47
16.21
30.74
45.12
56.44
63.07
63.69
57.31
43.61
23.45
-0.14
-22.76
-39.59
-48.23
-48.86
-44.46
-38.17
-31.81
-25.01
-15.80
-3.14
12.53
28.19
40.11
45.32
42.76
33.48
19.62
3.94
-11.38
-23.61
-30.31
-29.55
-21.31
-8.48
4.17
11.48
10.97
3.51
-6.76
-14.90
-17.85
-15.65
-11.27
-7.71
-6.57
-6.48
-5.31
-1.24
5.29
12.09
16.94
18.34
16.78
13.33
9.68
6.69
4.44
2.38
-0.23
-3.02
-5.19
-4.71
-0.16
8.89
20.53
31.03
36.15
32.79
21.21
4.72
-11.39
-22.99
-28.58
-29.48
-28.57
-27.59
-26.89
-25.15
-21.61
-16.30
-10.45
-5.64
-2.51
-0.69
1.46
5.11
10.82
17.60
23.80
27.68
27.95
24.47
17.85
10.08
3.30
-0.06
1.33
7.57
17.22
27.37
35.23
38.24
35.49
27.30
15.61
2.60
-10.17
-21.87
-32.62
-41.83
-48.48
-50.71
-47.41
-39.05
-28.06
-18.01
-11.54
-9.44
-9.92
-10.73
-9.96
-7.45
-4.01
-0.46
3.05
7.34
12.42
17.05
18.39
14.11
3.93
-9.75
-22.19
-28.99
-27.56
-18.95
-6.59
5.13
13.15
16.65
16.35
13.46
7.84
-1.25
-14.80
-31.76
-48.82
-60.86
-62.85
-52.66
-31.78
-5.95
17.62
32.17
34.55
25.86
10.57
-5.31
-16.88
-21.35
-19.14
-12.24
-3.25
5.88
14.26
21.47
27.69
32.76
36.93
40.56
44.34
48.58
52.59
54.87
53.01
45.50
32.13
15.02
-2.45
-16.54
-24.66
-26.51
-23.39
-17.87
-11.47
-5.02
2.07
10.57
20.85
32.35
43.08
50.53
51.55
44.37
29.15
8.81
-11.64
-27.07
-34.04
-32.89
-26.70
-19.83
-14.99
-12.21
-9.65
-5.09
1.80
9.77
16.35
19.68
18.71
13.57
5.00
-5.62
-15.90
-23.50
-26.14
-23.85
-18.60
-13.99
-12.71
-15.02
-18.89
-21.35
-21.18
-18.79
-15.65
-12.17
-7.35
0.14
9.90
18.93
23.32
20.32
11.22
0.31
-7.11
-8.09
-3.60
3.24
8.98
12.64
14.88
17.21
19.70
20.79
18.74
12.58
3.61
-5.69
-12.25
-14.64
-12.95
-8.67
-3.54
1.45
5.44
8.42
9.72
9.05
6.24
2.12
-2.13
-5.58
-8.15
-11.30
-16.22
-23.55
-32.21
-40.48
-46.59
-49.45
-49.21
-45.88
-39.65
-30.44
-19.03
-7.46
1.55
5.63
4.30
-1.06
-6.90
-9.94
-7.69
-0.09
11.38
24.50
36.66
46.37
52.46
54.89
54.12
51.05
46.68
42.03
37.83
33.86
29.45
23.18
14.32
3.07
-8.24
-16.17
-17.98
-12.71
-2.65
8.17
15.41
16.85
12.79
5.59
-1.85
-8.01
-12.64
-16.91
-21.49
-26.54
-31.17
-34.10
-34.70
-33.11
-30.34
-27.17
-23.93
-20.05
-14.71
-7.32
1.56
9.87
15.47
16.94
15.21
12.66
12.23
15.47
20.98
25.60
25.70
19.88
8.82
-4.41
-16.35
-24.73
-28.93
-29.93
-28.90
-26.62
-22.29
-14.86
-3.83
9.56
22.44
31.43
34.04
30.18
21.64
11.50
1.90
-6.62
-14.84
-23.72
-32.52
-38.78
-39.01
-31.65
-18.34
-3.37
8.02
12.47
9.74
3.24
-2.90
-5.39
-3.63
0.64
5.04
7.52
7.91
6.72
4.95
2.62
-0.67
-4.91
-9.33
-12.02
-11.05
-5.02
5.68
19.50
33.59
45.03
51.31
51.00
44.12
31.43
15.23
-1.58
-16.32
-27.14
-33.33
-35.51
-35.87
-36.40
-38.65
-42.06
-44.96
-44.74
-39.47
-29.27
-15.74
-2.00
9.72
18.28
24.16
28.53
32.06
34.49
34.99
33.35
29.74
25.34
20.99
16.46
10.34
1.16
-11.18
-25.23
-37.91
-46.13
-47.80
-42.59
-31.66
-16.54
0.95
19.12
35.39
47.22
51.87
48.06
36.57
20.31
3.91
-8.47
-14.03
-12.67
-6.27
2.20
10.49
17.24
21.87
24.50
24.63
22.40
18.46
14.25
11.38
10.55
10.82
9.84
5.47
-3.46
-15.31
-26.68
-34.07
-35.48
-31.42
-24.25
-17.14
-11.71
-8.34
-6.01
-3.43
0.04
4.11
7.54
9.22
8.20
4.73
-0.46
-5.67
-9.62
-11.75
-12.09
-11.84
-11.75
-12.27
-12.75
-11.89
-8.66
-3.01
3.69
9.45
12.58
13.17
12.46
12.06
12.80
13.94
14.03
11.55
6.70
0.44
-5.65
-10.21
-12.38
-11.54
-7.72
-0.94
7.59
16.13
22.10
23.84
20.97
15.01
8.81
4.70
3.63
4.35
4.73
2.86
-1.78
-7.98
-13.67
-16.92
-17.31
-15.63
-13.43
-11.82
-10.95
-10.32
-9.50
-9.21
-10.26
-13.13
-16.52
-18.02
-15.56
-8.80
-0.15
6.84
9.11
6.56
1.41
-2.71
-3.85
-2.23
0.12
1.41
1.46
1.18
1.91
3.46
4.39
2.50
-3.87
-14.07
-25.68
-35.14
-39.52
-37.28
-29.36
-18.22
-6.55
3.47
11.48
18.12
24.57
31.31
38.07
43.70
47.14
48.00
45.86
40.39
31.04
18.34
3.94
-8.81
-16.34
-16.62
-10.27
-1.17
5.78
6.27
-0.93
-13.39
-25.98
-33.11
-31.71
-21.98
-7.92
5.71
14.93
18.70
18.75
17.97
18.44
20.43
22.54
22.83
20.71
17.12
13.83
12.52
13.36
15.12
15.59
13.00
6.32
-4.18
-16.99
-29.64
-38.94
-42.43
-38.80
-28.95
-15.52
-2.50
6.69
10.47
8.97
4.12
-2.23
-8.39
-13.72
-17.91
-20.71
-21.70
-20.97
-19.23
-17.52
-16.83
-17.03
-16.88
-14.87
-10.63
-5.46
-1.49
-0.41
-1.95
-4.41
-5.81
-5.33
-3.86
-2.56
-2.37
-2.69
-2.63
-1.36
0.39
1.19
0.19
-1.91
-2.39
1.44
11.29
26.19
42.85
56.95
64.67
63.77
53.96
37.21
17.00
-2.15
-16.23
-22.40
-20.09
-10.90
1.67
13.06
19.38
18.32
10.58
-0.22
-8.85
-10.71
-4.77
6.03
15.28
17.15
8.87
-7.23
-25.21
-38.64
-43.33
-39.66
-30.98
-21.52
-13.91
-8.40
-3.65
1.93
8.56
15.15
19.52
20.38
17.48
12.28
6.71
2.47
0.02
-2.07
-5.63
-12.31
-22.26
-33.85
-44.08
-49.65
-48.42
-39.93
-26.54
-11.88
-0.07
6.16
6.50
3.03
-0.44
-0.93
2.78
9.01
15.06
18.95
20.67
22.19
25.72
31.95
38.74
43.01
42.03
35.89
27.18
19.66
16.27
17.28
20.84
23.68
23.48
19.77
14.32
9.87
8.73
11.93
17.82
23.42
25.39
21.63
12.50
0.50
-11.06
-19.97
-25.77
-29.90
-34.03
-38.77
-43.04
-44.91
-42.68
-36.27
-27.61
-19.25
-14.21
-14.09
-18.60
-25.69
-31.96
-34.24
-30.56
-21.90
-11.22
-2.66
1.25
0.81
-0.64
1.21
8.40
19.23
29.03
33.07
29.11
19.32
8.27
0.13
-3.24
-3.11
-1.79
-1.45
-2.30
-3.77
-4.86
-5.21
-5.14
-4.57
-3.26
-0.79
2.40
5.17
6.38
6.10
6.00
7.94
12.84
19.13
23.56
22.92
16.40
5.87
-5.04
-13.21
-18.24
-21.59
-25.72
-31.20
-36.23
-37.90
-33.50
-23.09
-8.85
5.54
17.37
25.60
30.58
33.05
32.94
29.60
22.79
13.97
5.92
1.56
1.64
3.92
4.50
-0.31
-10.89
-24.01
-34.06
-36.02
-28.04
-12.44
5.47
20.51
28.87
29.96
25.41
18.46
12.40
9.35
10.45
14.46
18.75
20.19
16.63
8.27
-2.16
-10.77
-14.63
-12.72
-6.74
0.42
6.01
8.47
7.99
4.92
-0.33
-8.28
-18.93
-31.42
-43.02
-49.90
-49.05
-39.62
-24.19
-7.07
6.98
15.10
16.96
14.81
11.60
9.26
8.57
8.74
8.35
6.04
1.58
-4.61
-11.11
-16.01
-18.10
-17.06
-14.31
-12.04
-12.46
-16.22
-21.92
-26.68
-27.41
-22.64
-12.40
1.17
15.59
28.76
39.08
45.46
47.13
44.19
37.62
29.88
23.66
21.48
24.15
30.65
38.13
43.24
43.36
37.22
25.96
12.04
-1.32
-11.51
-17.41
-19.76
-20.69
-21.81
-23.91
-25.99
-26.73
-25.43
-23.11
-21.85
-22.86
-25.90
-28.81
-29.09
-25.48
-19.24
-12.99
-9.18
-8.96
-11.06
-13.32
-13.45
-10.58
-5.29
1.32
8.04
14.09
18.73
21.51
21.98
20.43
17.77
15.42
14.55
14.72
14.29
10.78
3.05
-7.48
-16.63
-19.61
-13.97
-1.12
13.19
22.38
22.01
12.72
-0.95
-12.88
-18.30
-16.19
-8.36
1.80
11.61
19.53
25.06
28.04
28.21
25.70
21.01
15.36
9.96
5.85
3.29
1.97
1.29
0.46
-0.91
-3.28
-6.10
-8.60
-9.70
-9.00
-7.64
-7.38
-10.40
-17.27
-27.07
-37.19
-45.00
-48.79
-48.53
-45.79
-42.28
-39.40
-36.77
-33.20
-27.06
-17.59
-5.62
6.96
17.63
24.66
27.35
26.69
24.57
23.13
23.33
24.63
25.69
24.74
21.80
17.65
13.88
11.43
10.00
8.88
7.15
4.92
2.66
1.10
-0.28
-2.14
-4.81
-7.41
-7.42
-3.01
5.93
16.19
22.82
21.84
12.78
-0.26
-11.22
-14.83
-9.76
1.68
14.80
25.77
33.09
37.88
42.40
47.18
51.03
50.68
43.49
28.72
8.66
-12.16
-29.31
-39.94
-44.55
-45.30
-45.02
-45.13
-45.10
-43.65
-39.55
-33.34
-26.10
-19.76
-15.28
-13.00
-12.89
-14.09
-15.59
-15.37
-11.53
-2.24
12.47
30.45
47.48
58.73
61.16
54.10
40.29
23.86
9.02
-2.00
-9.25
-14.24
-18.73
-22.74
-25.11
-23.88
-18.53
-10.38
-2.25
3.00
4.74
4.27
4.64
7.54
12.91
18.38
20.87
18.92
12.92
5.53
-0.86
-4.97
-7.46
-9.91
-13.72
-18.69
-22.80
-23.87
-20.28
-13.13
-5.45
-0.79
-1.05
-5.32
-10.66
-13.79
-13.53
-10.78
-8.30
-7.66
-8.46
-9.10
-7.86
-5.08
-2.55
-2.88
-6.76
-12.74
-17.54
-18.20
-14.36
-7.90
-1.85
1.88
3.26
4.37
6.99
11.36
16.01
18.29
17.23
13.54
10.07
9.62
13.15
19.01
23.70
24.18
19.55
12.32
6.22
4.78
9.06
17.09
25.47
30.66
31.29
27.69
21.61
14.01
4.86
-6.25
-19.13
-31.91
-41.37
-44.03
-38.75
-27.00
-13.02
-1.77
3.41
1.66
-4.89
-13.24
-20.30
-24.17
-24.25
-20.25
-12.82
-2.97
6.70
13.35
14.37
9.50
0.71
-8.40
-14.30
-15.69
-13.33
-9.74
-6.63
-4.21
-1.64
2.07
6.48
10.06
10.76
8.02
2.71
-2.71
-5.98
-6.23
-3.97
-0.92
1.38
1.72
-0.06
-3.09
-5.96
-6.87
-4.79
0.35
6.50
10.88
10.62
5.15
-3.82
-13.15
-20.33
-25.36
-29.75
-35.71
-43.49
-51.33
-56.37
-56.85
-53.58
-49.33
-47.19
-48.06
-50.72
-52.43
-51.03
-46.50
-40.49
-35.43
-32.57
-31.82
-32.23
-32.95
-33.78
-35.18
-37.75
-41.48
-45.63
-48.46
-48.05
-42.35
-30.07
-10.86
14.74
45.20
78.76
113.31
147.03
178.09
204.92
225.92
239.96
246.35
245.02
236.67
222.46
203.88
182.39
159.25
135.45
111.71
88.58
66.52
46.01
27.47
11.23
-2.54
-13.87
-23.00
-30.23
-35.90
-40.25
-43.40
-45.40
-46.22
-45.90
-44.50
-42.24
-39.35
-36.07
-32.56
-28.88
-24.97
-20.69
-15.85
-10.40
-4.47
1.64
7.58
13.04
18.00
22.59
27.18
32.15
37.50
42.71
46.81
48.61
47.13
42.00
33.50
22.45
10.00
-3.11
-16.86
-31.88
-49.13
-69.22
-91.07
-113.26
-133.89
-150.67
-162.51
-169.65
-173.69
-176.99
-182.08
-190.47
-202.31
-216.51
-229.73
-237.72
-236.11
-221.51
-192.95
-153.51
-108.97
-67.34
-35.97
-18.51
-13.51
-14.99
-15.27
-8.16
8.01
30.74
55.21
77.25
95.03
108.74
119.28
127.05
130.99
130.05
124.11
114.40
103.26
93.40
86.47
82.63
80.70
78.81
75.31
69.58
62.13
54.27
47.53
42.88
40.38
39.34
38.60
37.19
34.69
31.28
27.62
24.46
22.37
21.45
21.51
22.13
22.91
23.54
23.86
23.86
23.64
23.45
23.55
24.29
25.95
28.62
32.00
35.53
38.50
40.43
41.33
41.64
42.20
43.83
46.78
50.42
53.38
53.99
50.93
43.81
33.16
20.29
6.54
-7.15
-20.77
-34.98
-50.62
-68.25
-87.30
-107.74
-128.86
-148.79
-164.25
-170.93
-165.01
-145.04
-113.98
-77.30
-42.39
-15.27
1.53
9.21
11.18
10.66
9.23
6.61
2.30
-3.53
-9.28
-12.73
-12.55
-9.19
-4.80
-1.90
-2.65
-7.29
-14.54
-22.07
-27.38
-28.31
-23.31
-11.86
4.99
24.01
40.21
48.47
45.67
32.72
14.91
0.25
-4.06
5.57
27.00
54.08
79.76
98.94
109.43
110.91
103.84
88.21
64.86
36.88
10.02
-9.01
-15.50
-8.56
7.03
23.65
34.18
35.12
27.20
14.40
1.14
-9.53
-16.79
-21.50
-24.71
-26.94
-28.08
-28.01
-27.08
-26.13
-26.23
-28.27
-32.38
-37.84
-43.51
-48.23
-51.39
-53.19
-54.62
-57.00
-61.52
-68.64
-77.80
-87.76
-97.06
-104.70
-110.58
-115.61
-121.37
-129.48
-140.74
-154.65
-169.55
-183.14
-193.15
-198.14
-197.79
-192.60
-183.15
-169.63
-150.80
-124.74
-89.67
-44.73
9.73
72.24
140.22
209.12
272.61
322.86
352.03
354.91
331.61
288.39
235.84
185.60
145.26
117.14
99.17
87.26
78.12
70.49
64.59
60.73
58.17
55.14
50.06
42.54
33.61
25.11
18.99
16.19
16.24
17.63
18.48
17.56
14.68
10.69
7.00
4.91
5.06
7.17
10.23
13.08
14.92
15.60
15.58
15.63
16.49
18.45
21.29
24.38
26.94
28.35
28.36
26.94
24.28
20.59
15.97
10.52
4.06
-3.42
-11.77
-20.50
-28.97
-36.44
-42.28
-46.10
-47.75
-47.45
-45.56
-42.56
-38.91
-35.02
-31.15
-27.55
-24.39
-21.90
-20.25
-19.53
-19.64
-20.18
-20.57
-20.14
-18.39
-15.32
-11.36
-7.42
-4.46
-3.17
-3.47
-4.61
-5.47
-4.90
-2.53
1.18
4.89
6.92
6.18
2.79
-1.80
-5.61
-6.83
-5.05
-1.56
0.90
-0.86
-8.65
-21.94
-37.72
-51.93
-60.65
-62.11
-57.23
-49.27
-42.98
-42.36
-49.54
-63.79
-81.85
-97.38
-102.72
-91.05
-56.42
-0.31
68.26
134.24
181.47
198.42
183.56
145.80
100.65
63.50
43.26
40.41
48.26
59.08
65.16
62.64
52.51
38.56
23.99
9.11
-7.02
-24.74
-42.11
-55.68
-61.85
-58.96
-48.53
-34.55
-22.13
-14.78
-13.34
-15.96
-19.40
-20.41
-17.21
-10.17
-1.41
6.22
10.71
11.62
10.03
7.78
6.73
7.96
11.37
15.87
20.01
22.72
23.70
23.38
22.53
22.02
22.33
23.47
25.02
26.43
27.25
27.30
26.64
25.45
23.97
22.32
20.51
18.43
15.96
12.97
9.39
5.19
0.33
-5.15
-11.28
-18.13
-25.75
-34.17
-43.47
-53.71
-64.93
-77.75
-92.22
-108.35
-126.15
-145.57
-166.58
-189.03
-212.66
-236.96
-261.22
-284.58
-305.76
-323.43
-336.06
-342.04
-339.91
-329.07
-308.97
-279.63
-241.81
-197.07
-147.58
-95.86
-44.58
3.78
47.17
84.11
113.74
135.82
150.57
158.75
161.33
159.46
154.18
146.46
137.01
126.45
115.13
103.46
91.70
80.08
68.92
58.24
48.17
38.68
29.68
21.17
13.21
5.98
-0.43
-5.95
-10.71
-15.17
-19.95
-25.68
-32.81
-41.53
-51.48
-62.27
-73.48
-84.92
-96.91
-110.02
-124.88
-141.67
-160.01
-178.70
-196.38
-211.72
-224.19
-234.22
-242.79
-251.11
-259.46
-267.01
-271.25
-269.34
-258.58
-237.30
-205.49
-164.37
-115.62
-60.09
2.79
75.09
158.95
256.46
368.99
495.19
631.22
769.81
900.49
1011.05
1090.80
1132.59
1135.85
1106.63
1054.45
989.02
916.69
839.25
754.79
664.91
570.12
472.74
377.72
290.78
216.66
156.61
107.67
61.29
10.10
-51.06
-123.01
-202.54
-284.73
-365.10
-441.27
-512.78
-579.83
-641.77
-697.26
-744.24
-780.30
-804.22
-815.32
-813.68
-799.67
-773.65
-735.53
-685.65
-624.66
-553.56
-473.91
-387.66
-296.66
-202.11
-104.48
-4.28
96.14
191.84
275.04
337.80
375.12
387.23
379.71
361.18
339.87
320.50
303.76
287.78
270.90
252.84
234.93
218.19
202.17
184.55
162.20
133.26
98.39
61.09
26.21
-1.87
-21.20
-32.80
-40.08
-47.27
-57.77
-73.27
-93.06
-114.38
-132.44
-141.25
-135.13
-110.51
-68.09
-13.11
45.16
96.13
131.32
147.22
146.23
135.13
121.77
111.44
104.81
98.04
85.35
62.29
28.37
-12.37
-53.00
-86.55
-108.94
-119.84
-122.17
-119.77
-115.50
-110.51
-104.53
-97.29
-89.43
-83.15
-80.05
-79.59
-77.87
-69.00
-49.26
-20.03
11.15
34.03
41.15
32.25
14.34
-2.48
-11.00
-10.66
-6.66
-5.68
-11.07
-20.98
-30.25
-34.35
-32.33
-26.98
-22.42
-21.20
-23.15
-25.90
-26.64
-24.07
-18.84
-12.95
-8.55
-7.18
-8.73
-11.93
-14.95
-16.19
-15.02
-11.96
-8.30
-5.55
-4.73
-6.01
-8.71
-11.70
-13.82
-14.43
-13.53
-11.73
-10.00
-9.27
-10.06
-12.38
-15.65
-18.97
-21.43
-22.43
-22.01
-20.81
-19.92
-20.39
-22.78
-26.92
-31.84
-36.22
-39.04
-39.87
-39.17
-38.00
-37.43
-38.33
-41.25
-46.48
-53.83
-61.94
-67.91
-67.66
-57.44
-35.91
-5.48
28.01
57.41
77.24
85.74
85.00
79.23
72.33
66.21
60.77
55.13
48.90
42.84
38.24
35.96
35.75
36.32
36.15
34.06
29.96
24.76
19.84
16.40
14.89
14.95
15.59
15.68
14.49
11.99
8.76
5.70
3.55
2.58
2.59
3.00
3.17
2.71
1.58
0.08
-1.29
-2.12
-2.20
-1.47
-0.05
1.94
4.41
7.32
10.61
14.17
17.95
21.33
23.78
24.87
24.32
22.05
18.18
13.01
6.93
0.44
-5.98
-11.77
-16.40
-19.41
-20.55
-19.83
-17.51
-14.11
-10.22
-6.39
-2.90
0.22
3.16
6.15
9.27
12.37
15.02
16.69
17.05
16.18
14.54
12.97
12.29
13.08
15.37
18.71
22.44
25.95
29.04
31.84
34.75
38.14
42.39
47.67
53.94
60.69
66.62
69.68
67.56
58.73
43.54
24.60
6.07
-7.79
-14.30
-13.07
-5.77
4.86
16.31
27.05
36.43
44.21
50.05
53.33
52.72
47.96
39.62
28.74
16.53
3.88
-8.78
-21.40
-34.18
-47.29
-60.50
-73.39
-85.42
-96.08
-105.01
-112.03
-117.22
-120.77
-122.86
-123.32
-121.82
-117.89
-111.10
-101.16
-88.06
-72.20
-54.36
-35.56
-16.80
0.92
16.73
29.78
39.36
44.97
46.39
43.84
37.93
29.67
20.09
10.08
0.28
-8.77
-16.58
-22.77
-27.31
-30.56
-33.04
-35.35
-38.00
-41.20
-44.56
-47.14
-47.94
-46.36
-42.50
-36.74
-29.78
-22.78
-17.20
-14.01
-13.40
-14.91
-17.77
-21.34
-24.83
-27.86
-31.17
-36.25
-43.97
-53.63
-63.10
-69.44
-69.83
-61.56
-43.15
-15.37
18.95
56.45
94.25
130.25
162.97
185.69
191.77
181.02
159.84
135.02
110.51
87.69
66.98
48.55
32.53
19.76
10.99
5.84
2.68
-0.03
-3.39
-7.91
-13.82
-21.37
-30.14
-39.36
-48.56
-58.62
-68.95
-78.71
-86.99
-92.86
-95.39
-93.38
-85.60
-71.55
-51.85
-27.93
-2.00
23.40
45.88
63.71
76.02
82.67
83.81
79.44
69.70
54.92
35.86
12.89
-11.72
-35.03
-54.26
-67.54
-74.32
-75.23
-71.75
-65.59
-58.34
-51.05
-44.56
-39.47
-36.08
-34.28
-33.54
-32.99
-31.75
-29.36
-26.01
-22.72
-20.85
-21.32
-24.13
-28.25
-32.03
-33.72
-31.80
-25.23
-13.78
1.91
20.27
39.02
55.56
67.73
74.41
75.87
73.45
68.70
62.63
55.68
48.00
40.04
32.73
27.14
24.13
23.85
25.65
28.28
30.69
32.52
34.35
37.30
42.30
49.73
59.31
70.38
81.88
92.83
102.24
108.96
111.48
107.99
97.41
80.21
58.68
35.81
14.85
-1.49
-11.68
-15.35
-13.50
-7.16
3.08
16.69
31.50
44.98
55.17
61.26
63.91
63.35
60.32
55.86
50.59
42.67
30.32
13.25
-7.21
-28.53
-50.48
-73.19
-96.67
-120.90
-148.15
-179.86
-215.18
-251.01
-282.79
-308.92
-328.41
-340.39
-329.43
-288.35
-224.40
-155.00
-101.29
-60.44
-27.14
2.80
32.05
60.44
84.52
101.43
110.81
114.88
117.54
119.59
121.22
122.66
124.07
123.76
120.29
113.67
105.28
97.52
90.25
82.95
75.28
67.04
57.20
45.26
31.99
19.16
8.73
0.63
-5.87
-11.25
-15.16
-16.90
-15.28
-9.30
1.00
14.11
26.80
35.85
39.35
37.02
29.73
18.88
6.08
-7.05
-18.87
-27.91
-32.89
-33.03
-28.52
-20.36
-10.27
-0.03
9.02
16.09
21.03
24.12
25.93
27.05
28.02
29.17
30.55
31.77
32.10
30.86
28.14
25.40
25.54
32.12
47.87
73.30
105.91
140.67
171.39
192.60
201.01
195.98
179.00
152.64
119.56
82.26
43.16
4.94
-29.50
-57.16
-75.53
-83.09
-79.82
-67.23
-48.15
-26.43
-6.71
6.00
7.31
-5.05
-29.78
-61.56
-92.42
-114.47
-122.99
-118.16
-104.42
-88.17
-74.72
-66.43
-62.84
-62.09
-62.57
-63.60
-65.27
-68.06
-73.09
-82.48
-99.20
-125.66
-161.72
-203.21
-242.32
-269.91
-278.85
-266.64
-235.88
-192.63
-143.86
-95.24
-50.44
-11.52
20.22
43.88
59.15
66.77
68.68
67.62
66.33
66.60
68.87
72.23
75.02
75.68
73.48
68.81
63.06
57.94
54.73
53.81
54.49
55.50
55.59
54.07
51.00
46.97
42.79
39.05
35.92
33.09
30.00
26.13
21.18
15.18
8.51
1.78
-4.50
-9.93
-14.41
-18.03
-20.95
-23.36
-25.39
-27.04
-28.26
-28.99
-29.18
-28.84
-28.07
-27.00
-25.84
-24.78
-23.81
-22.82
-21.55
-19.78
-17.27
-13.84
-9.13
-2.76
5.73
16.69
30.16
45.76
62.64
79.88
96.68
112.72
127.69
141.23
152.76
161.49
166.63
167.55
164.12
156.73
146.21
133.01
117.25
98.95
78.39
56.28
33.74
12.26
-6.47
-20.84
-30.40
-35.60
-37.42
-36.86
-34.75
-31.83
-28.69
-25.74
-23.23
-22.31
-24.21
-29.55
-38.02
-48.97
-62.43
-79.67
-102.89
-127.83
-148.52
-159.70
-159.68
-149.74
-132.23
-110.06
-86.51
-64.35
-45.00
-29.23
-17.18
-8.48
-2.61
0.99
2.75
3.18
3.16
3.85
5.57
7.96
10.38
12.26
13.30
13.33
12.53
11.48
11.17
12.13
14.47
18.05
22.47
27.12
31.25
34.16
35.25
34.77
32.89
29.68
25.27
19.66
12.84
4.86
-4.09
-13.67
-23.40
-32.87
-41.53
-48.38
-51.97
-50.69
-43.46
-30.44
-13.38
4.85
21.20
33.40
40.63
43.40
42.94
40.62
37.31
33.40
29.19
25.06
21.52
19.07
17.80
17.20
16.29
14.84
12.36
8.85
4.82
1.26
-0.80
-0.64
1.72
5.67
10.25
14.59
18.37
21.80
25.37
29.38
33.79
38.08
41.60
43.80
44.41
43.66
42.20
41.02
41.14
43.33
47.72
53.67
59.90
64.98
68.11
69.36
69.87
71.19
74.63
80.57
88.46
97.22
105.39
111.73
115.09
114.52
109.60
100.64
88.96
76.43
64.81
54.79
45.76
36.05
23.88
8.61
-9.17
-28.15
-47.26
-66.14
-84.64
-102.06
-116.96
-127.63
-133.06
-133.74
-131.23
-127.31
-122.88
-117.82
-111.60
-104.47
-97.92
-93.90
-93.70
-96.71
-100.78
-103.26
-101.89
-96.51
-88.64
-80.54
-74.16
-70.83
-70.93
-74.09
-79.26
-84.17
-86.26
-83.04
-72.58
-54.31
-29.63
-1.84
24.09
43.45
54.44
57.51
55.02
50.80
48.16
48.43
50.59
50.72
45.75
37.55
28.59
20.66
15.29
12.74
12.32
13.29
12.63
9.23
8.11
10.56
12.90
11.40
3.59
-10.23
-26.92
-47.07
-69.96
-87.23
-96.42
-101.39
-104.82
-108.04
-110.86
-111.98
-116.89
-129.67
-143.48
-157.28
-176.66
-204.88
-242.58
-287.11
-290.54
-227.61
-164.44
-123.30
-88.94
-60.17
-35.83
-14.36
5.89
25.35
36.02
45.74
64.56
90.75
116.38
139.08
157.96
170.78
174.78
164.14
138.33
108.01
81.28
58.49
41.12
29.08
21.57
17.96
15.28
11.70
10.47
12.92
17.93
25.16
33.64
43.15
51.85
56.80
56.67
53.40
49.21
46.03
46.94
54.67
70.92
95.77
127.02
160.68
191.35
212.79
219.90
210.69
186.17
149.76
106.20
60.54
17.04
-22.38
-56.90
-84.91
-103.32
-108.92
-99.76
-76.01
-39.64
5.93
54.77
99.79
135.18
157.59
166.00
161.23
146.25
125.79
104.66
84.18
62.08
35.47
2.81
-36.15
-81.21
-131.59
-185.80
-230.12
-248.55
-236.68
-204.54
-164.59
-123.57
-83.96
-46.87
-13.60
14.36
34.10
42.53
41.16
34.76
28.56
25.30
24.80
24.91
22.86
14.79
-3.12
-33.07
-72.13
-110.89
-138.98
-147.88
-134.03
-99.46
-51.76
-1.73
40.61
69.55
84.58
88.93
87.59
84.59
81.42
76.52
67.14
51.98
32.64
12.68
-4.83
-17.81
-25.67
-29.12
-29.60
-28.35
-25.66
-20.81
-13.00
-2.44
9.49
20.57
28.67
32.61
32.61
30.18
27.50
26.65
28.44
32.36
37.10
41.14
43.40
43.73
42.89
42.12
42.68
45.12
48.98
53.20
56.25
56.66
53.65
47.52
39.74
32.50
28.13
27.73
31.38
37.49
43.22
45.62
42.81
34.49
21.76
6.42
-10.67
-29.01
-49.19
-72.25
-98.78
-128.04
-158.04
-185.98
-208.46
-222.70
-224.95
-212.30
-184.24
-143.90
-98.51
-58.28
-33.54
-24.43
-30.28
-43.28
-52.04
-49.24
-35.02
-14.90
4.63
19.84
30.81
39.02
46.67
54.08
59.51
60.94
57.68
50.79
42.65
36.06
32.20
31.51
33.04
34.87
35.34
33.67
30.07
25.65
21.90
19.60
19.32
20.69
22.58
23.79
23.26
20.36
15.02
7.34
-2.82
-15.49
-30.20
-45.28
-57.34
-62.33
-57.03
-40.55
-15.29
13.70
40.57
60.71
70.79
71.98
67.21
59.26
49.67
38.93
27.23
15.09
3.45
-6.68
-14.51
-20.08
-23.91
-26.45
-27.97
-28.06
-26.09
-21.67
-14.80
-6.03
3.54
12.49
19.73
24.72
27.87
30.22
32.70
35.70
38.52
39.28
35.56
25.61
9.25
-11.82
-34.64
-56.29
-74.76
-89.49
-101.09
-110.65
-118.71
-125.14
-129.45
-130.31
-128.17
-124.44
-120.84
-118.35
-116.55
-113.81
-107.99
-97.54
-81.93
-61.80
-37.92
-11.15
17.62
47.22
76.31
103.67
128.43
150.54
170.43
189.53
209.34
230.34
251.05
267.88
276.10
271.72
253.90
225.73
194.46
167.86
150.22
140.10
131.18
116.03
90.07
53.79
11.45
-30.74
-68.22
-99.19
-123.38
-139.61
-144.73
-135.91
-112.66
-82.08
-54.81
-39.23
-38.01
-48.48
-64.90
-81.21
-93.31
-98.94
-99.98
-97.01
-89.82
-77.94
-61.62
-41.74
-18.86
7.17
37.16
67.91
96.94
121.72
140.31
151.31
154.46
151.28
144.79
137.89
131.85
127.17
123.39
119.37
112.43
98.84
75.49
41.18
-3.58
-57.48
-117.72
-180.68
-234.92
-265.93
-266.75
-243.00
-206.50
-167.31
-131.30
-100.48
-74.73
-53.07
-35.62
-23.52
-17.16
-15.08
-14.80
-14.23
-12.23
-8.68
-4.11
-0.11
1.61
0.65
-1.46
-2.47
-0.88
3.45
9.49
15.47
19.21
19.22
15.54
10.04
4.72
0.56
-2.80
-6.37
-11.63
-19.98
-32.09
-47.75
-65.70
-83.74
-98.72
-106.31
-102.12
-84.61
-56.87
-25.87
0.02
14.79
17.37
11.84
5.82
6.63
16.89
33.93
52.37
67.96
80.28
93.20
107.45
118.72
124.78
124.37
116.74
102.02
81.87
59.83
39.79
24.06
13.24
6.63
2.20
-2.03
-6.95
-12.23
-16.82
-19.94
-21.78
-22.81
-23.38
-24.39
-26.79
-30.98
-36.61
-42.52
-47.43
-50.50
-50.77
-47.23
-39.34
-27.03
-10.93
7.38
25.29
39.20
45.50
42.34
30.59
13.60
-3.88
-17.51
-24.87
-25.80
-22.22
-16.78
-11.45
-7.00
-3.30
0.08
3.40
4.94
4.07
0.82
-4.02
-9.22
-13.62
-16.61
-18.27
-19.05
-19.39
-19.11
-17.97
-15.78
-12.77
-9.51
-6.72
-4.86
-3.93
-3.59
-3.26
-2.81
-2.48
-2.66
-3.56
-5.03
-6.59
-7.82
-8.61
-9.23
-10.35
-12.66
-16.53
-21.84
-28.05
-34.56
-40.93
-47.08
-53.14
-59.36
-65.86
-72.48
-78.99
-85.23
-91.42
-98.02
-105.42
-113.45
-121.24
-127.50
-131.14
-132.10
-131.56
-131.51
-133.85
-139.45
-147.79
-157.42
-166.60
-173.59
-176.55
-173.20
-160.89
-137.18
-100.83
-52.61
4.77
67.39
131.45
194.29
254.90
313.54
370.84
426.85
480.30
528.36
567.15
592.71
602.09
594.11
569.41
529.76
477.31
414.29
343.42
268.46
194.24
125.61
65.99
16.26
-25.09
-60.52
-91.53
-117.50
-136.04
-144.68
-142.85
-133.08
-120.68
-112.00
-112.33
-124.31
-147.49
-178.93
-214.30
-248.94
-278.55
-299.68
-309.93
-308.02
-293.80
-268.27
-233.53
-192.56
-149.05
-106.83
-69.38
-39.23
-17.54
-4.02
2.77
4.88
4.34
2.74
1.07
-0.20
-0.89
-1.08
-0.96
-0.92
-1.47
-3.10
-6.12
-10.51
-15.90
-21.67
-27.06
-31.41
-34.35
-35.83
-36.15
-35.85
-35.50
-35.58
-36.34
-37.79
-39.65
-41.47
-42.72
-42.97
-42.10
-40.54
-39.24
-39.46
-42.21
-47.75
-55.21
-62.86
-68.75
-71.60
-71.35
-68.95
-65.73
-62.57
-59.49
-55.77
-50.47
-42.72
-31.81
-17.13
1.75
24.54
49.63
73.81
92.97
103.21
102.18
90.04
69.38
44.58
20.66
2.20
-7.51
-6.86
3.95
23.33
48.90
77.96
107.76
135.33
157.45
170.93
173.67
165.77
150.09
131.80
116.73
109.42
111.79
122.83
139.48
158.04
175.39
189.54
199.60
205.21
206.22
202.45
193.91
180.89
163.92
143.48
119.76
92.68
62.31
29.45
-4.10
-35.73
-62.90
-84.06
-99.24
-109.74
-117.34
-123.32
-127.88
-130.41
-130.07
-126.61
-120.70
-113.78
-107.46
-102.93
-100.52
-99.75
-99.60
-99.17
-98.07
-96.51
-95.07
-94.16
-93.70
-92.99
-91.20
-87.86
-83.34
-78.68
-75.00
-72.79
-71.59
-70.35
-68.07
-64.42
-59.89
-55.26
-50.94
-46.60
-41.45
-34.95
-27.70
-21.65
-19.64
-24.29
-36.88
-56.71
-81.31
-107.39
-132.06
-153.65
-171.71
-186.25
-196.63
-201.10
-197.29
-183.40
-159.27
-126.51
-87.65
-44.75
1.28
50.31
101.73
153.20
200.61
239.25
265.73
279.25
281.75
276.64
267.28
255.79
243.05
229.33
215.12
201.47
189.78
181.29
176.46
174.87
175.44
176.85
177.84
177.28
174.04
166.91
154.64
136.05
110.22
76.65
35.71
-10.78
-58.99
-103.16
-136.64
-153.66
-151.23
-130.13
-94.51
-50.52
-4.67
37.14
70.03
90.16
95.21
85.22
63.34
35.46
8.53
-11.91
-23.66
-28.15
-28.97
-29.71
-32.28
-36.50
-41.11
-45.07
-48.35
-51.77
-56.14
-61.50
-66.87
-70.71
-71.85
-70.14
-66.67
-63.15
-61.12
-61.20
-62.93
-65.04
-66.14
-65.45
-63.05
-59.75
-56.56
-54.17
-52.67
-51.66
-50.62
-49.25
-47.60
-45.98
-44.66
-43.65
-42.64
-41.21
-38.93
-35.66
-31.48
-26.69
-21.64
-16.63
-11.91
-7.67
-4.01
-1.01
1.36
3.18
4.55
5.58
6.32
6.79
6.96
6.81
6.31
5.42
4.10
2.34
0.20
-2.15
-4.46
-6.45
-7.92
-8.80
-9.14
-9.07
-8.74
-8.25
-7.68
-7.07
-6.48
-5.95
-5.56
-5.41
-5.54
-5.90
-6.38
-6.77
-6.84
-6.44
-5.55
-4.26
-2.75
-1.18
0.33
1.74
3.08
4.37
5.64
6.85
7.89
8.58
8.75
8.30
7.24
5.73
4.02
2.38
0.99
-0.05
-0.75
-1.15
-1.30
-1.22
-0.96
-0.61
-0.29
-0.14
-0.26
-0.62
-1.11
-1.56
-1.81
-1.82
-1.73
-1.78
-2.21
-3.14
-4.53
-6.13
-7.63
-8.76
-9.30
-9.16
-8.33
-6.89
-4.97
-2.83
-0.75
0.96
2.10
2.71
2.98
3.24
3.74
4.50
5.31
5.84
5.81
5.12
3.94
2.56
1.33
0.40
-0.17
-0.48
-0.60
-0.58
-0.42
-0.15
0.15
0.38
0.46
0.34
0.07
-0.30
-0.74
-1.28
-1.99
-2.89
-3.93
-5.00
-6.00
-6.82
-7.45
-7.84
-7.96
-7.67
-6.86
-5.51
-3.73
-1.77
0.04
1.46
2.36
2.75
2.79
2.67
2.59
2.65
2.87
3.15
3.32
3.28
3.02
2.68
2.48
2.60
3.09
3.82
4.55
4.98
4.94
4.34
3.23
1.75
0.08
-1.55
-2.91
-3.81
-4.20
-4.11
-3.74
-3.35
-3.15
-3.28
-3.83
-4.75
-5.93
-7.20
-8.36
-9.22
-9.62
-9.46
-8.72
-7.43
-5.70
-3.65
-1.48
0.58
2.33
3.61
4.37
4.68
4.71
4.60
4.47
4.37
4.29
4.20
4.03
3.77
3.39
2.95
2.51
2.20
2.11
2.27
2.64
3.13
3.59
3.89
3.93
3.68
3.14
2.37
1.46
0.51
-0.45
-1.38
-2.23
-2.96
-3.46
-3.66
-3.51
-3.11
-2.61
-2.22
-2.07
-2.12
-2.23
-2.20
-1.88
-1.20
-0.24
0.89
2.07
3.22
4.25
5.07
5.63
5.84
5.71
5.25
4.56
3.70
2.74
1.75
0.79
-0.04
-0.64
-0.91
-0.83
-0.44
0.12
0.74
1.29
1.72
2.01
2.14
2.07
1.74
1.12
0.29
-0.54
-1.12
-1.30
-1.08
-0.67
-0.42
-0.57
-1.23
-2.27
-3.43
-4.40
-4.97
-5.04
-4.62
-3.79
-2.64
-1.32
-0.01
1.16
2.09
2.79
3.37
3.93
4.51
5.04
5.41
5.51
5.32
4.90
4.34
3.72
3.06
2.34
1.57
0.80
0.15
-0.26
-0.35
-0.15
0.23
0.61
0.81
0.69
0.22
-0.54
-1.48
-2.43
-3.29
-4.03
-4.64
-5.09
-5.33
-5.32
-5.04
-4.55
-4.04
-3.68
-3.51
-3.44
-3.20
-2.53
-1.27
0.50
2.54
4.50
6.06
7.08
7.53
7.51
7.11
6.36
5.28
3.90
2.36
0.88
-0.24
-0.84
-0.91
-0.62
-0.26
-0.08
-0.19
-0.56
-1.03
-1.47
-1.80
-1.99
-2.09
-2.12
-2.11
-2.10
-2.19
-2.46
-2.94
-3.60
-4.33
-4.99
-5.55
-6.02
-6.47
-6.91
-7.22
-7.16
-6.51
-5.17
-3.23
-1.01
1.12
2.82
3.94
4.50
4.63
4.46
4.08
3.52
2.79
1.96
1.20
0.66
0.48
0.62
0.98
1.38
1.68
1.83
1.83
1.73
1.55
1.31
1.04
0.80
0.64
0.54
0.42
0.19
-0.24
-0.80
-1.39
-1.84
-2.05
-2.03
-1.92
-1.90
-2.13
-2.67
-3.47
-4.31
-4.93
-5.06
-4.55
-3.42
-1.83
-0.06
1.56
2.77
3.48
3.68
3.52
3.24
3.03
3.05
3.32
3.78
4.26
4.64
4.80
4.77
4.58
4.27
3.88
3.40
2.83
2.21
1.63
1.18
0.89
0.73
0.53
0.18
-0.43
-1.26
-2.19
-3.01
-3.59
-3.86
-3.88
-3.78
-3.70
-3.77
-4.05
-4.52
-5.06
-5.55
-5.88
-5.93
-5.67
-5.10
-4.25
-3.18
-1.95
-0.64
0.70
1.97
3.09
3.99
4.59
4.85
4.79
4.44
3.87
3.16
2.41
1.74
1.25
1.04
1.11
1.42
1.82
2.15
2.31
2.29
2.19
2.12
2.14
2.20
2.17
1.93
1.41
0.66
-0.22
-1.12
-1.96
-2.67
-3.22
-3.56
-3.67
-3.57
-3.34
-3.14
-3.11
-3.34
-3.85
-4.55
-5.31
-5.97
-6.40
-6.49
-6.20
-5.49
-4.38
-2.97
-1.39
0.18
1.60
2.75
3.60
4.17
4.55
4.77
4.85
4.77
4.54
4.18
3.80
3.51
3.41
3.52
3.79
4.06
4.19
4.08
3.72
3.20
2.69
2.33
2.21
2.30
2.49
2.64
2.65
2.49
2.20
1.83
1.40
0.88
0.25
-0.46
-1.18
-1.84
-2.41
-2.90
-3.38
-3.88
-4.42
-4.93
-5.37
-5.80
-6.30
-6.92
-7.61
-8.15
-8.23
-7.65
-6.33
-4.45
-2.34
-0.37
1.24
2.43
3.26
3.90
4.45
4.94
5.32
5.49
5.40
5.09
4.69
4.38
4.25
4.29
4.38
4.35
4.12
3.77
3.44
3.35
3.63
4.21
4.89
5.42
5.62
5.49
5.23
5.04
5.11
5.48
6.04
6.56
6.85
6.76
6.29
5.63
4.99
4.59
4.53
4.77
5.14
5.46
5.60
5.58
5.49
5.46
5.58
5.84
6.10
6.21
6.05
5.56
4.81
4.03
3.46
3.40
4.00
5.22
6.74
7.98
8.19
6.70
3.13
-2.42
-9.28
-16.37
-22.48
-26.61
-28.33
-27.84
-25.89
-23.44
-21.37
-20.14
-19.80
-20.07
-20.51
-20.77
-20.63
-20.01
-18.94
-17.49
-15.70
-13.69
-11.61
-9.65
-8.01
-6.82
-6.03
-5.46
-4.82
-3.84
-2.39
-0.51
1.62
3.83
5.96
8.00
10.01
12.06
14.18
16.35
18.47
20.45
22.22
23.76
25.05
26.11
26.95
27.60
28.06
28.25
28.04
27.22
25.59
23.08
19.83
16.20
12.62
9.46
6.80
4.50
2.24
-0.21
-2.85
-5.43
-7.56
-8.91
-9.36
-9.05
-8.23
-7.19
-6.13
-5.12
-4.23
-3.54
-3.17
-3.20
-3.58
-4.12
-4.54
-4.63
-4.31
-3.69
-2.99
-2.45
-2.13
-2.01
-1.95
-1.81
-1.53
-1.13
-0.69
-0.26
0.12
0.46
0.77
1.02
1.14
1.07
0.78
0.32
-0.22
-0.74
-1.18
-1.53
-1.84
-2.13
-2.42
-2.68
-2.93
-3.20
-3.55
-4.00
-4.54
-5.07
-5.51
-5.79
-5.89
-5.84
-5.72
-5.61
-5.57
-5.63
-5.74
-5.74
-5.49
-4.88
-3.89
-2.64
-1.32
-0.09
0.96
1.81
2.51
3.06
3.44
3.57
3.41
2.99
2.40
1.78
1.26
0.94
0.84
0.97
1.29
1.72
2.20
2.64
2.96
3.13
3.13
3.00
2.84
2.73
2.70
2.70
2.59
2.23
1.62
0.87
0.18
-0.22
-0.24
0.03
0.41
0.69
0.70
0.32
-0.59
-2.20
-4.65
-7.94
-11.84
-15.93
-19.78
-23.15
-26.05
-28.65
-31.09
-33.23
-34.75
-35.31
-34.81
-33.67
-32.63
-32.53
-33.96
-37.01
-41.35
-46.40
-51.63
-56.71
-61.58
-66.28
-70.79
-74.89
-78.11
-79.70
-78.89
-75.04
-67.84
-57.41
-44.24
-29.06
-12.62
4.47
21.72
38.70
54.86
69.56
82.10
91.91
98.80
103.01
105.12
105.83
105.69
104.83
103.02
99.79
94.67
87.48
78.50
68.42
58.18
48.74
40.67
34.03
28.40
23.10
17.54
11.43
4.85
-1.87
-8.33
-14.22
-19.35
-23.62
-27.05
-29.79
-32.14
-34.41
-36.76
-39.06
-40.90
-41.77
-41.38
-39.76
-37.25
-34.22
-30.79
-26.70
-21.44
-14.54
-5.76
4.80
16.88
30.24
44.61
59.57
74.42
88.13
99.61
107.99
112.89
114.29
112.24
106.45
96.33
81.33
61.75
39.22
16.67
-2.51
-15.72
-22.20
-23.31
-21.77
-20.41
-20.85
-22.77
-24.18
-22.48
-15.72
-3.47
12.97
31.24
48.82
63.88
75.59
83.93
89.10
91.15
89.89
85.17
77.32
67.18
55.91
44.50
33.28
21.86
9.60
-3.75
-17.50
-30.11
-39.77
-45.18
-46.16
-43.78
-39.91
-36.65
-35.83
-38.71
-45.94
-57.46
-72.46
-89.37
-106.14
-120.69
-131.44
-137.59
-139.03
-135.98
-128.63
-116.92
-100.57
-79.60
-54.84
-28.25
-2.74
18.56
33.19
40.04
39.42
32.55
20.67
4.48
-15.66
-39.03
-63.57
-85.70
-101.20
-107.00
-102.83
-91.82
-79.44
-71.32
-70.83
-77.63
-87.81
-95.63
-95.95
-86.19
-67.00
-41.45
-13.40
14.01
39.00
60.88
79.25
93.47
102.78
106.95
106.75
103.84
99.88
95.50
89.80
80.86
66.96
47.83
25.30
2.79
-15.82
-27.71
-32.03
-29.88
-23.63
-15.79
-8.20
-1.72
3.54
7.62
10.50
12.04
12.30
11.81
11.64
13.03
16.92
23.64
32.87
43.97
56.26
69.16
82.10
94.40
105.23
113.79
119.67
122.92
123.95
123.25
121.02
116.96
110.55
101.39
89.52
75.67
61.06
47.07
34.95
25.55
19.16
15.48
13.64
12.32
9.98
5.23
-2.68
-13.64
-26.69
-40.51
-53.94
-66.39
-77.99
-89.26
-100.69
-112.43
-124.07
-134.77
-143.40
-148.76
-149.80
-145.89
-137.04
-124.08
-108.59
-92.49
-77.52
-64.74
-54.36
-45.89
-38.64
-32.12
-26.34
-21.73
-18.87
-18.13
-19.44
-22.27
-25.84
-29.29
-31.93
-33.28
-33.20
-31.79
-29.42
-26.61
-23.91
-21.84
-20.70
-20.52
-21.06
-21.85
-22.34
-22.10
-21.00
-19.16
-16.92
-14.58
-12.28
-9.90
-7.24
-4.13
-0.65
2.90
6.12
8.62
10.16
10.61
9.93
8.08
5.14
1.41
-2.51
-5.84
-7.86
-8.16
-6.82
-4.34
-1.39
1.47
3.95
6.03
7.84
9.43
10.75
11.65
11.97
11.63
10.73
9.47
8.14
7.01
6.32
6.17
6.55
7.26
8.05
8.65
8.84
8.56
7.85
6.87
5.78
4.73
3.82
3.08
2.43
1.78
1.00
0.02
-1.21
-2.65
-4.27
-5.99
-7.77
-9.53
-11.17
-12.51
-13.34
-13.47
-12.86
-11.58
-9.83
-7.77
-5.51
-3.07
-0.42
2.41
5.25
7.84
9.92
11.31
11.97
12.01
11.59
10.85
9.91
8.80
7.58
6.27
4.92
3.58
2.28
1.04
-0.12
-1.14
-1.99
-2.67
-3.21
-3.76
-4.48
-5.48
-6.68
-7.74
-8.07
-7.00
-4.03
0.81
6.91
13.17
18.38
21.74
23.06
22.79
21.66
20.41
19.54
19.40
20.27
22.44
26.12
31.12
36.79
42.10
46.00
47.89
47.81
46.43
44.67
43.30
42.69
42.79
43.24
43.62
43.56
42.77
41.07
38.39
34.79
30.48
25.78
21.00
16.34
11.84
7.41
2.94
-1.52
-5.75
-9.42
-12.20
-13.90
-14.54
-14.28
-13.43
-12.35
-11.42
-10.98
-11.28
-12.35
-14.01
-15.91
-17.63
-18.83
-19.31
-19.04
-18.11
-16.63
-14.79
-12.77
-10.78
-8.97
-7.35
-5.72
-3.74
-1.14
2.13
5.78
9.28
11.99
13.47
13.65
12.87
11.74
10.88
10.73
11.36
12.51
13.69
14.39
14.28
13.31
11.76
10.07
8.70
7.92
7.76
7.98
8.26
8.30
7.91
7.05
5.74
4.09
2.23
0.33
-1.33
-2.50
-3.00
-2.89
-2.45
-2.14
-2.37
-3.35
-5.01
-7.05
-8.97
-10.35
-10.92
-10.61
-9.56
-8.03
-6.28
-4.54
-2.97
-1.65
-0.67
-0.11
-0.05
-0.54
-1.58
-3.07
-4.90
-6.88
-8.84
-10.57
-11.74
-12.05
-11.25
-9.31
-6.42
-2.93
0.82
4.65
8.47
12.29
16.06
19.61
22.73
25.27
27.26
28.82
30.07
30.99
31.33
30.80
29.17
26.43
22.80
18.64
14.24
9.78
5.28
0.71
-3.92
-8.45
-12.60
-16.01
-18.41
-19.66
-19.80
-19.07
-17.78
-16.27
-14.84
-13.68
-12.84
-12.25
-11.65
-10.78
-9.37
-7.40
-5.05
-2.70
-0.76
0.50
1.06
1.14
1.04
1.05
1.29
1.72
2.24
2.78
3.29
3.78
4.22
4.56
4.69
4.52
3.99
3.16
2.12
1.02
-0.01
-0.91
-1.64
-2.21
-2.64
-2.94
-3.09
-3.06
-2.83
-2.45
-2.02
-1.72
-1.71
-2.09
-2.82
-3.75
-4.63
-5.20
-5.29
-4.79
-3.73
-2.23
-0.47
1.30
2.83
3.91
4.49
4.64
4.54
4.39
4.30
4.24
4.16
4.00
3.75
3.47
3.23
3.07
2.98
2.95
3.00
3.15
3.41
3.72
3.94
3.92
3.60
3.01
2.31
1.63
1.04
0.53
0.06
-0.40
-0.81
-1.09
-1.20
-1.22
-1.28
-1.51
-1.97
-2.61
-3.35
-4.09
-4.80
-5.44
-5.94
-6.16
-5.94
-5.20
-3.92
-2.27
-0.50
1.13
2.40
3.22
3.62
3.68
3.56
3.36
3.11
2.81
2.42
1.92
1.38
0.90
0.59
0.50
0.58
0.75
0.91
1.02
1.05
1.02
0.91
0.69
0.31
-0.21
-0.79
-1.30
-1.62
-1.69
-1.60
-1.50
-1.56
-1.92
-2.58
-3.48
-4.46
-5.35
-5.98
-6.20
-5.91
-5.10
-3.80
-2.17
-0.39
1.33
2.79
3.92
4.65
5.03
5.09
4.91
4.54
4.06
3.54
3.05
2.68
2.49
2.51
2.69
2.91
3.03
2.94
2.60
2.09
1.57
1.22
1.12
1.25
1.48
1.61
1.50
1.11
0.51
-0.11
-0.57
-0.75
-0.65
-0.38
-0.08
0.06
-0.09
-0.57
-1.27
-2.01
-2.48
-2.39
-1.57
-0.11
1.58
2.89
3.25
2.40
0.60
-1.45
-2.87
-3.05
-1.93
0.01
1.96
3.24
3.55
3.02
2.08
1.22
0.69
0.51
0.60
0.79
1.02
1.28
1.57
1.85
2.01
1.91
1.40
0.39
-1.08
-2.92
-4.92
-6.82
-8.40
-9.46
-9.88
-9.65
-8.87
-7.74
-6.55
-5.54
-4.85
-4.49
-4.31
-4.09
-3.65
-2.95
-2.07
-1.23
-0.61
-0.36
-0.47
-0.84
-1.33
-1.77
-2.04
-2.08
-1.88
-1.50
-1.01
-0.48
0.02
0.46
0.80
1.01
1.07
0.96
0.74
0.49
0.36
0.44
0.71
1.05
1.28
1.22
0.80
0.11
-0.67
-1.35
-1.80
-2.03
-2.13
-2.28
-2.60
-3.16
-3.92
-4.75
-5.52
-6.07
-6.31
-6.20
-5.73
-4.93
-3.90
-2.77
-1.67
-0.71
0.11
0.82
1.49
2.19
2.87
3.44
3.78
3.84
3.62
3.18
2.59
1.93
1.22
0.56
0.04
-0.25
-0.25
-0.02
0.32
0.59
0.69
0.57
0.29
-0.01
-0.26
-0.40
-0.47
-0.54
-0.69
-0.94
-1.30
-1.68
-1.98
-2.09
-1.99
-1.73
-1.48
-1.38
-1.51
-1.83
-2.19
-2.40
-2.28
-1.71
-0.63
0.97
3.10
5.58
8.13
10.28
11.52
11.53
10.33
8.35
6.23
4.56
3.65
3.39
3.37
3.13
2.37
1.02
-0.76
-2.74
-4.77
-6.79
-8.81
-10.81
-12.68
-14.24
-15.33
-15.81
-15.68
-15.06
-14.15
-13.13
-12.13
-11.19
-10.23
-9.09
-7.61
-5.78
-3.69
-1.63
0.11
1.27
1.78
1.79
1.53
1.29
1.21
1.30
1.39
1.30
0.93
0.35
-0.27
-0.69
-0.75
-0.43
0.16
0.87
1.53
2.06
2.44
2.71
2.91
3.09
3.24
3.38
3.48
3.50
3.39
3.14
2.81
2.46
2.21
2.13
2.22
2.48
2.84
3.26
3.70
4.15
4.58
4.92
5.09
5.02
4.70
4.16
3.47
2.71
1.96
1.28
0.73
0.41
0.39
0.68
1.28
2.10
3.04
3.98
4.78
5.35
5.66
5.71
5.61
5.48
5.45
5.52
5.61
5.59
5.30
4.65
3.64
2.32
0.79
-0.82
-2.31
-3.48
-4.16
-4.31
-4.08
-3.78
-3.69
-3.97
-4.44
-4.70
-4.27
-2.83
-0.43
2.47
5.16
6.83
6.91
5.20
1.96
-2.21
-6.54
-10.36
-13.23
-15.02
-15.86
-15.98
-15.53
-14.55
-13.03
-11.00
-8.67
-6.42
-4.62
-3.55
-3.14
-3.05
-2.72
-1.64
0.47
3.46
6.79
9.72
11.66
12.40
12.21
11.65
11.27
11.30
11.58
11.66
11.08
9.58
7.23
4.28
0.99
-2.44
-5.91
-9.28
-12.32
-14.76
-16.40
-17.20
-17.36
-17.22
-17.07
-17.12
-17.32
-17.51
-17.55
-17.41
-17.20
-17.10
-17.16
-17.26
-17.13
-16.54
-15.50
-14.36
-13.63
-13.79
-15.05
-17.24
-19.95
-22.71
-25.13
-27.03
-28.30
-28.76
-28.18
-26.32
-23.09
-18.72
-13.61
-8.18
-2.63
3.23
9.83
17.56
26.52
36.23
45.64
53.50
58.75
61.08
61.12
60.19
59.84
61.08
63.87
66.95
68.45
66.68
60.88
51.60
40.35
28.90
18.61
9.99
2.74
-3.79
-10.16
-16.60
-22.94
-28.91
-34.32
-39.20
-43.66
-47.70
-51.06
-53.22
-53.78
-52.77
-50.89
-49.27
-48.80
-49.51
-50.19
-48.81
-43.42
-33.15
-18.78
-2.43
13.32
26.47
36.11
42.43
46.09
47.62
47.18
44.65
40.10
34.11
27.69
21.90
17.42
14.31
12.08
10.08
7.90
5.60
3.64
2.58
2.75
4.12
6.30
8.82
11.32
13.58
15.52
17.02
18.04
18.61
19.03
19.75
21.20
23.54
26.48
29.34
31.29
31.68
30.26
27.20
22.92
17.89
12.52
7.10
1.84
-3.07
-7.43
-11.16
-14.30
-17.05
-19.69
-22.44
-25.29
-27.96
-30.05
-31.17
-31.21
-30.39
-29.09
-27.58
-25.82
-23.44
-19.93
-15.04
-8.94
-2.28
4.07
9.36
13.20
15.66
17.13
18.16
19.31
21.02
23.52
26.71
30.19
33.25
35.00
34.72
32.11
27.56
22.12
17.10
13.54
11.65
10.64
9.03
5.50
-0.37
-7.66
-14.45
-18.77
-19.56
-17.23
-13.41
-10.18
-9.11
-10.77
-14.77
-20.35
-27.02
-34.79
-43.97
-54.69
-66.59
-78.65
-89.46
-97.43
-101.15
-99.73
-93.06
-81.88
-67.72
-52.34
-37.09
-22.43
-7.92
7.18
23.00
38.54
51.86
60.98
65.10
65.01
62.77
60.44
58.99
57.77
54.93
48.54
37.46
21.91
3.21
-16.56
-34.74
-48.03
-52.51
-44.29
-20.86
17.26
65.62
116.31
160.05
188.98
199.05
190.76
167.79
134.66
94.45
48.31
-3.24
-58.15
-111.64
-157.00
-188.35
-203.52
-205.32
-200.08
-194.15
-190.41
-186.80
-177.73
-157.66
-124.62
-81.73
-36.14
3.95
32.46
47.30
50.08
44.58
34.46
21.86
7.10
-10.26
-30.20
-51.36
-71.23
-87.34
-98.46
-105.21
-109.42
-112.80
-115.67
-116.50
-112.59
-101.49
-82.26
-55.93
-25.01
7.65
39.73
69.89
97.59
122.60
144.71
163.60
179.07
191.13
200.11
206.48
210.58
212.30
211.00
205.52
194.35
175.95
149.10
113.37
69.59
19.98
-31.94
-82.01
-126.11
-161.02
-184.91
-197.51
-199.88
-193.96
-182.04
-166.43
-149.25
-132.26
-116.62
-102.58
-89.30
-75.03
-57.68
-35.85
-9.51
19.78
49.33
76.40
99.24
117.56
132.31
144.81
155.82
165.14
171.78
174.61
173.20
168.18
161.07
153.66
147.30
142.41
138.55
134.94
130.95
126.53
122.12
118.26
115.16
112.56
109.84
106.41
101.99
96.54
90.08
82.39
73.04
61.69
48.49
34.15
19.79
6.38
-5.73
-16.81
-27.52
-38.59
-50.56
-63.91
-79.10
-96.40
-115.61
-135.68
-154.77
-170.72
-181.86
-187.52
-188.15
-184.90
-178.92
-171.03
-161.73
-151.58
-141.49
-132.67
-126.23
-122.71
-121.82
-122.57
-123.74
-124.28
-123.60
-121.59
-118.30
-113.70
-107.50
-99.27
-88.76
-76.08
-61.80
-46.73
-31.66
-17.10
-3.34
9.39
20.72
29.98
36.55
40.00
40.42
38.42
34.97
31.04
27.37
24.38
22.21
20.86
20.27
20.32
20.83
21.52
22.05
22.02
21.11
19.11
16.03
12.07
7.61
3.12
-1.08
-4.81
-8.13
-11.26
-14.46
-17.90
-21.59
-25.36
-28.86
-31.74
-33.69
-34.61
-34.61
-34.08
-33.49
-33.31
-33.72
-34.65
-35.81
-36.91
-37.88
-38.91
-40.37
-42.54
-45.49
-48.98
-52.63
-56.09
-59.10
-61.47
-63.00
-63.43
-62.61
-60.54
-57.46
-53.62
-49.02
-43.33
-36.01
-26.72
-15.69
-3.65
8.41
19.96
31.21
43.05
56.46
71.70
87.93
103.42
116.26
125.18
130.03
131.82
132.26
133.25
136.48
143.04
153.07
165.57
178.37
188.67
193.93
192.95
186.53
177.09
167.55
159.87
154.25
149.29
143.02
134.18
122.86
110.33
98.13
87.10
76.97
66.71
55.22
42.21
28.46
15.62
5.45
-0.89
-3.31
-2.72
-0.56
1.80
3.48
4.36
4.84
5.45
6.49
7.90
9.38
10.63
11.64
12.71
14.36
17.05
20.84
25.26
29.26
31.53
30.92
26.79
19.19
8.61
-4.32
-19.18
-35.66
-53.47
-71.99
-90.27
-107.26
-122.13
-134.62
-144.94
-153.57
-160.80
-166.47
-170.01
-170.63
-167.75
-161.34
-152.09
-141.24
-130.22
-120.04
-110.98
-102.50
-93.61
-83.45
-71.72
-58.76
-45.28
-31.87
-18.58
-4.89
9.87
26.00
42.99
59.54
74.03
85.15
92.32
95.84
96.63
95.84
94.41
92.87
91.22
89.17
86.27
82.18
76.90
70.91
65.04
60.27
57.31
56.07
55.40
53.08
46.33
32.72
11.26
-16.72
-47.28
-74.69
-93.23
-99.33
-93.21
-78.92
-62.84
-51.11
-47.45
-52.23
-63.29
-77.62
-93.03
-108.82
-125.18
-142.22
-159.16
-174.46
-186.50
-194.33
-197.89
-197.47
-193.07
-184.11
-169.93
-150.81
-128.70
-107.03
-89.58
-78.83
-74.79
-75.00
-75.62
-72.89
-64.21
-48.25
-24.46
7.38
47.04
93.14
142.57
190.47
231.32
260.61
276.28
279.24
272.61
260.16
244.83
227.92
209.37
188.74
166.27
143.17
121.21
101.78
85.16
70.47
56.39
42.26
28.74
17.67
11.15
10.46
15.45
24.67
36.15
48.36
60.62
72.97
85.52
97.91
108.95
116.99
120.54
118.94
112.71
103.54
93.55
84.58
77.56
72.39
68.18
63.82
58.36
51.39
43.00
33.79
24.75
17.09
11.93
10.01
11.26
14.63
18.15
19.49
16.43
7.57
-7.33
-27.19
-49.81
-72.39
-92.28
-107.66
-117.95
-123.76
-126.29
-126.76
-125.90
-124.00
-121.19
-117.83
-114.61
-112.39
-111.81
-113.09
-116.01
-120.05
-124.66
-129.27
-133.27
-135.96
-136.62
-134.77
-130.37
-123.85
-115.98
-107.34
-98.03
-87.46
-74.58
-58.30
-38.06
-14.27
11.71
37.83
61.86
82.04
97.37
107.78
113.89
116.68
117.16
116.08
113.87
110.58
105.96
99.51
90.49
78.21
62.34
43.31
22.55
2.27
-15.22
-28.43
-37.14
-42.41
-45.80
-48.57
-51.10
-52.98
-53.58
-52.63
-50.42
-47.52
-44.27
-40.55
-36.00
-30.60
-24.97
-20.31
-17.75
-17.59
-19.02
-20.39
-19.92
-16.37
-9.33
0.90
13.62
27.93
42.71
56.51
67.79
75.38
79.01
79.50
78.36
77.00
76.01
74.86
72.33
67.25
59.13
48.45
36.36
24.13
12.66
2.26
-7.30
-16.49
-25.72
-35.08
-44.20
-52.37
-58.75
-62.79
-64.39
-63.79
-61.26
-56.79
-50.06
-40.72
-28.92
-15.63
-2.60
8.28
15.69
19.40
20.22
19.52
18.52
17.81
17.38
16.82
15.83
14.40
12.81
11.31
10.04
8.95
7.95
7.12
6.72
7.07
8.27
10.03
11.76
12.79
12.65
11.30
9.05
6.36
3.65
1.12
-1.22
-3.53
-6.06
-9.14
-13.14
-18.36
-24.90
-32.50
-40.45
-47.73
-53.30
-56.48
-57.20
-56.02
-53.84
-51.55
-49.60
-47.97
-46.18
-43.77
-40.55
-36.77
-33.10
-30.35
-29.20
-30.06
-32.84
-36.96
-41.41
-44.90
-46.18
-44.36
-39.27
-31.52
-22.40
-13.43
-5.96
-0.84
1.64
1.81
0.29
-2.10
-4.52
-6.24
-6.70
-5.69
-3.30
0.01
3.63
6.94
9.54
11.25
12.16
12.43
12.31
12.01
11.78
11.82
12.22
12.99
13.99
15.04
16.08
17.14
18.38
19.93
21.79
23.75
25.50
26.73
27.28
27.20
26.64
25.84
24.90
23.82
22.40
20.40
17.61
14.04
9.93
5.71
1.85
-1.31
-3.67
-5.32
-6.42
-7.13
-7.51
-7.54
-7.20
-6.48
-5.45
-4.25
-3.07
-2.13
-1.58
-1.50
-1.82
-2.43
-3.16
-3.93
-4.62
-5.05
-5.01
-4.23
-2.58
-0.24
2.33
4.45
5.49
5.11
3.33
0.53
-2.70
-5.76
-8.11
-9.39
-9.39
-8.14
-5.81
-2.79
0.52
3.72
6.56
8.94
10.89
12.48
13.74
14.69
15.31
15.57
15.45
14.91
13.97
12.62
11.01
9.37
8.16
7.89
9.00
11.64
15.64
20.52
25.79
31.07
36.25
41.36
46.35
51.01
54.93
57.67
59.02
59.01
57.81
55.51
52.01
47.12
40.88
33.75
26.60
20.41
15.86
12.99
11.27
9.90
8.21
5.99
3.55
1.54
0.68
1.51
4.16
8.23
12.88
17.02
19.67
20.33
19.11
16.52
13.14
9.29
4.92
-0.23
-6.36
-13.36
-20.93
-28.75
-36.72
-44.88
-53.29
-61.74
-69.83
-77.01
-82.90
-87.44
-90.81
-93.14
-94.33
-93.94
-91.35
-86.13
-78.28
-68.29
-57.03
-45.44
-34.19
-23.61
-13.67
-4.22
4.79
13.22
20.74
26.98
31.67
34.72
36.24
36.41
35.42
33.48
30.78
27.60
24.28
21.20
18.65
16.83
15.77
15.32
15.27
15.41
15.54
15.55
15.36
14.94
14.31
13.49
12.52
11.42
10.18
8.78
7.17
5.36
3.38
1.34
-0.67
-2.53
-4.19
-5.57
-6.64
-7.36
-7.67
-7.60
-7.20
-6.63
-6.04
-5.61
-5.42
-5.48
-5.71
-5.91
-5.87
-5.41
-4.46
-3.12
-1.66
-0.34
0.57
1.03
1.13
1.09
1.14
1.44
2.01
2.72
3.39
3.82
3.88
3.57
3.02
2.42
1.95
1.67
1.51
1.36
1.12
0.84
0.68
0.80
1.26
1.93
2.60
3.04
3.17
3.09
2.98
3.03
3.29
3.71
4.15
4.47
4.61
4.59
4.48
4.37
4.25
4.08
3.75
3.15
2.24
0.96
-0.67
-2.65
-4.90
-7.26
-9.46
-11.18
-12.13
-12.16
-11.36
-10.05
-8.63
-7.51
-6.92
-6.90
-7.34
-7.99
-8.62
-9.00
-9.01
-8.59
-7.77
-6.65
-5.34
-4.03
-2.93
-2.23
-2.10
-2.59
-3.63
-5.05
-6.62
-8.15
-9.53
-10.74
-11.81
-12.76
-13.57
-14.26
-14.89
-15.55
-16.30
-17.15
-17.96
-18.55
-18.72
-18.33
-17.35
-15.87
-14.03
-12.00
-9.95
-8.01
-6.26
-4.71
-3.33
-1.98
-0.55
1.08
2.92
4.90
6.89
8.68
10.09
10.96
11.26
10.97
10.19
9.00
7.52
5.88
4.24
2.78
1.69
1.11
1.10
1.61
2.48
3.48
4.36
4.99
5.36
5.65
6.13
7.05
8.56
10.69
13.31
16.21
19.12
21.76
23.91
25.63
27.28
29.64
33.64
39.97
48.63
58.72
68.52
75.99
79.39
77.68
70.70
59.02
43.61
25.55
5.94
-14.15
-33.61
-51.29
-66.11
-77.13
-83.69
-85.53
-82.91
-76.60
-67.79
-57.81
-47.80
-38.53
-30.26
-22.92
-16.37
-10.50
-5.26
-0.65
3.44
7.16
10.65
13.87
16.56
18.35
18.92
18.14
16.10
13.03
9.33
5.45
1.90
-0.76
-2.00
-1.49
0.81
4.56
9.14
13.80
17.86
20.88
22.67
23.36
23.24
22.74
22.36
22.50
23.37
24.95
27.07
29.44
31.76
33.71
34.90
34.92
33.33
29.94
24.90
18.76
12.36
6.54
1.97
-0.95
-2.07
-1.45
0.64
3.74
7.23
10.40
12.68
13.82
13.88
13.22
12.15
10.91
9.56
8.16
6.83
5.79
5.24
5.15
5.29
5.23
4.67
3.59
2.30
1.32
1.21
2.27
4.51
7.67
11.40
15.34
19.24
22.95
26.35
29.33
31.80
33.72
35.16
36.22
37.07
37.82
38.54
39.24
39.94
40.62
41.15
41.29
40.65
38.83
35.67
31.30
26.15
20.76
15.50
10.42
5.37
0.15
-5.28
-10.82
-16.40
-22.19
-28.68
-36.50
-46.10
-57.39
-69.67
-81.94
-93.16
-102.69
-110.38
-116.43
-121.09
-124.40
-126.08
-125.65
-122.67
-116.94
-108.60
-98.06
-85.91
-73.01
-60.48
-49.67
-41.82
-37.50
-36.21
-36.45
-36.34
-34.52
-30.77
-25.99
-21.55
-18.46
-16.90
-16.35
-15.97
-15.00
-12.86
-9.09
-3.36
4.24
12.85
20.88
26.51
28.75
28.00
26.05
25.05
26.39
29.95
34.28
37.61
38.88
38.40
37.45
37.45
38.94
41.16
42.30
40.40
34.22
23.77
10.24
-4.65
-19.31
-32.76
-44.63
-54.83
-63.06
-68.66
-70.77
-68.73
-62.49
-52.72
-40.60
-27.51
-14.64
-2.84
7.47
16.10
23.01
28.09
31.26
32.38
31.38
28.39
23.83
18.42
13.06
8.59
5.51
3.93
3.52
3.80
4.34
4.92
5.52
6.28
7.25
8.41
9.56
10.47
10.81
10.34
8.85
6.32
2.96
-0.82
-4.39
-7.15
-8.67
-8.89
-8.07
-6.77
-5.56
-4.87
-4.82
-5.25
-5.82
-6.14
-5.93
-5.05
-3.52
-1.41
1.09
3.81
6.58
9.21
11.50
13.29
14.39
14.71
14.26
13.18
11.72
10.21
8.89
7.88
7.14
6.51
5.88
5.20
4.58
4.17
4.13
4.46
5.05
5.65
6.04
6.06
5.69
5.02
4.14
3.18
2.19
1.24
0.41
-0.23
-0.63
-0.80
-0.86
-1.03
-1.52
-2.51
-4.05
-5.99
-8.07
-9.92
-11.17
-11.57
-11.00
-9.60
-7.56
-5.17
-2.63
-0.10
2.40
4.85
7.29
9.75
12.19
14.55
16.62
18.16
18.90
18.73
17.77
16.31
14.75
13.42
12.44
11.73
11.13
10.51
9.87
9.28
8.84
8.55
8.36
8.13
7.74
7.15
6.33
5.32
4.16
2.92
1.68
0.53
-0.43
-1.17
-1.71
-2.16
-2.71
-3.53
-4.71
-6.18
-7.68
-8.85
-9.30
-8.81
-7.33
-5.05
-2.29
0.60
3.34
5.73
7.68
9.15
10.20
10.94
11.42
11.66
11.53
10.94
9.85
8.44
7.07
6.10
5.78
5.99
6.36
6.39
5.70
4.31
2.61
1.22
0.64
1.00
1.91
2.64
2.44
0.90
-1.80
-4.94
-7.54
-8.85
-8.70
-7.59
-6.39
-5.85
-6.27
-7.36
-8.53
-9.19
-8.96
-7.43
-3.86
2.86
13.68
28.52
45.73
62.42
75.74
84.20
88.37
90.07
90.97
91.14
88.84
81.67
68.34
49.84
29.28
10.38
-4.36
-14.75
-22.64
-30.70
-40.96
-53.75
-67.57
-79.72
-87.33
-88.43
-82.69
-71.48
-57.45
-43.78
-33.23
-27.59
-27.28
-31.25
-37.39
-43.15
-46.25
-45.38
-40.41
-32.22
-22.11
-11.11
0.37
12.40
24.99
37.70
49.51
59.23
66.09
70.09
71.91
72.51
72.62
72.64
72.83
73.48
74.91
77.22
79.90
81.80
81.46
77.61
69.84
58.71
45.41
31.30
17.34
3.99
-8.69
-20.54
-31.00
-39.11
-43.77
-44.29
-40.85
-34.68
-27.97
-23.23
-22.50
-26.90
-36.36
-49.91
-66.15
-83.58
-100.70
-115.99
-127.84
-134.62
-135.07
-128.74
-116.33
-99.65
-81.10
-62.75
-45.60
-29.22
-12.25
6.65
27.76
50.01
71.32
89.62
103.66
113.29
119.04
121.37
120.24
115.29
106.32
93.92
79.38
64.29
49.73
35.93
22.34
8.19
-6.83
-22.20
-36.74
-49.16
-58.48
-64.28
-66.47
-64.87
-59.02
-48.26
-32.32
-11.80
11.72
36.03
58.90
78.73
94.74
106.61
113.98
116.04
111.62
99.73
80.40
55.10
26.78
-0.80
-24.15
-41.10
-51.38
-56.52
-58.90
-60.63
-62.70
-64.67
-65.21
-63.01
-57.38
-48.55
-37.25
-24.21
-9.77
5.87
22.27
38.43
52.90
64.42
72.61
78.26
82.95
88.23
94.75
101.83
107.85
111.05
110.36
105.92
98.93
90.99
83.49
77.07
71.50
65.97
59.55
51.66
42.34
32.27
22.45
13.81
6.91
1.76
-1.95
-4.79
-7.32
-10.06
-13.41
-17.67
-22.85
-28.69
-34.78
-40.86
-47.25
-54.88
-65.03
-78.65
-95.72
-114.85
-133.62
-149.26
-159.63
-163.87
-162.45
-156.74
-148.35
-138.49
-127.83
-116.65
-105.20
-93.93
-83.37
-73.80
-64.88
-55.66
-44.83
-31.27
-14.68
4.22
23.78
41.81
56.21
65.49
69.10
67.52
62.07
54.50
46.44
38.95
32.19
25.46
17.60
7.51
-5.26
-20.21
-35.92
-50.37
-61.48
-67.72
-68.46
-64.09
-55.87
-45.48
-34.64
-24.78
-16.90
-11.46
-8.49
-7.52
-7.83
-8.54
-8.81
-8.12
-6.33
-3.73
-0.82
1.83
3.79
4.91
5.35
5.50
5.77
6.46
7.55
8.83
9.87
10.28
9.89
8.75
7.19
5.60
4.28
3.32
2.59
1.75
0.51
-1.23
-3.32
-5.30
-6.65
-6.91
-5.92
-3.85
-1.11
1.79
4.44
6.61
8.32
9.76
11.19
12.77
14.52
16.25
17.75
18.86
19.60
20.27
21.25
22.79
24.87
27.15
29.06
30.13
30.08
28.96
27.04
24.68
22.21
19.94
18.12
16.76
15.56
13.79
10.43
4.61
-3.90
-14.37
-25.24
-34.69
-41.31
-44.55
-44.88
-43.47
-41.64
-40.52
-40.76
-42.52
-45.55
-49.21
-52.55
-54.55
-54.31
-51.35
-45.76
-38.10
-29.29
-20.33
-12.12
-5.29
-0.21
3.06
4.72
5.10
4.69
3.96
3.26
2.77
2.46
2.20
1.86
1.35
0.69
-0.01
-0.64
-1.09
-1.29
-1.21
-0.84
-0.24
0.50
1.21
1.80
2.31
2.99
4.20
6.24
9.24
13.01
17.15
21.07
24.17
25.95
26.13
24.69
21.91
18.35
14.64
11.40
9.04
7.68
7.24
7.45
8.01
8.66
9.14
9.25
8.85
7.91
6.50
4.80
2.99
1.22
-0.41
-1.88
-3.19
-4.37
-5.43
-6.39
-7.27
-8.05
-8.63
-8.82
-8.41
-7.28
-5.51
-3.39
-1.32
0.31
1.30
1.68
1.72
1.73
1.93
2.41
3.14
3.99
4.92
5.87
6.80
7.64
8.20
8.32
7.86
6.87
5.54
4.18
3.10
2.43
2.17
2.17
2.18
2.00
1.55
0.86
0.06
-0.65
-1.09
-1.14
-0.77
-0.07
0.82
1.70
2.41
2.83
2.96
2.89
2.71
2.53
2.35
2.10
1.64
0.82
-0.39
-1.82
-3.17
-4.10
-4.36
-3.94
-3.06
-2.17
-1.77
-2.21
-3.55
-5.54
-7.60
-9.10
-9.46
-8.42
-6.06
-2.82
0.68
3.84
6.20
7.56
7.95
7.52
6.59
5.48
4.56
4.12
4.32
5.08
6.18
7.25
7.95
8.10
7.71
6.98
6.15
5.47
5.03
4.86
4.94
5.17
5.51
5.87
6.20
6.40
6.43
6.27
5.94
5.54
5.10
4.68
4.22
3.63
2.81
1.72
0.43
-0.94
-2.21
-3.26
-3.99
-4.41
-4.52
-4.37
-4.01
-3.58
-3.20
-2.99
-3.02
-3.26
-3.58
-3.84
-3.99
-4.08
-4.23
-4.60
-5.25
-6.17
-7.26
-8.30
-9.10
-9.43
-9.15
-8.20
-6.64
-4.62
-2.32
0.01
2.22
4.11
5.57
6.52
6.92
6.83
6.40
5.84
5.31
4.95
4.74
4.62
4.53
4.44
4.38
4.42
4.62
4.96
5.40
5.83
6.17
6.36
6.40
6.29
6.10
5.87
5.66
5.49
5.34
5.17
4.94
4.58
4.11
3.54
2.93
2.31
1.69
1.09
0.60
0.31
0.28
0.49
0.80
1.03
0.97
0.57
-0.10
-0.85
-1.51
-1.99
-2.33
-2.65
-3.05
-3.57
-4.17
-4.78
-5.37
-5.91
-6.40
-6.77
-6.91
-6.68
-5.97
-4.80
-3.28
-1.63
-0.03
1.36
2.51
3.47
4.29
4.99
5.57
5.98
6.17
6.18
6.05
5.82
5.54
5.20
4.77
4.22
3.54
2.82
2.21
1.90
2.03
2.60
3.50
4.48
5.27
5.72
5.84
5.80
5.80
6.03
6.50
7.03
7.46
7.58
7.37
6.95
6.52
6.29
6.41
6.91
7.70
8.66
9.68
10.66
11.53
12.13
12.28
11.78
10.52
8.59
6.23
3.74
1.34
-0.92
-3.19
-5.68
-8.53
-11.69
-14.93
-17.95
-20.48
-22.36
-23.60
-24.26
-24.44
-24.18
-23.45
-22.23
-20.48
-18.30
-15.81
-13.24
-10.78
-8.56
-6.58
-4.75
-2.92
-0.96
1.19
3.47
5.72
7.81
9.58
10.98
12.01
12.73
13.17
13.37
13.30
12.92
12.22
11.27
10.18
9.11
8.17
7.36
6.64
5.92
5.21
4.53
3.96
3.52
3.12
2.57
1.69
0.40
-1.17
-2.73
-3.98
-4.72
-5.00
-5.02
-5.03
-5.23
-5.69
-6.43
-7.40
-8.53
-9.72
-10.83
-11.64
-11.99
-11.80
-11.16
-10.30
-9.42
-8.65
-8.00
-7.44
-6.95
-6.57
-6.37
-6.40
-6.64
-7.01
-7.36
-7.56
-7.47
-7.01
-6.13
-4.82
-3.15
-1.24
0.74
2.52
3.83
4.46
4.25
3.29
1.80
0.14
-1.32
-2.34
-2.81
-2.73
-2.16
-1.22
-0.03
1.18
2.16
2.68
2.63
2.14
1.50
0.95
0.61
0.27
-0.42
-1.79
-3.94
-6.63
-9.28
-11.19
-11.84
-11.07
-9.13
-6.57
-4.01
-1.91
-0.46
0.37
0.79
1.04
1.34
1.74
2.13
2.26
1.75
0.34
-1.94
-4.61
-6.81
-7.54
-6.17
-2.68
2.30
7.69
12.48
15.96
17.97
18.70
18.57
17.91
16.95
15.86
14.74
13.75
13.10
12.98
13.47
14.52
15.80
16.87
17.31
16.91
15.82
14.44
13.29
12.68
12.60
12.69
12.53
11.71
10.13
7.93
5.46
3.15
1.42
0.60
0.77
1.80
3.32
4.74
5.55
5.43
4.34
2.57
0.55
-1.33
-2.84
-3.96
-4.81
-5.59
-6.44
-7.41
-8.48
-9.51
-10.33
-10.80
-10.84
-10.49
-9.90
-9.23
-8.62
-8.10
-7.65
-7.20
-6.74
-6.33
-6.06
-5.97
-6.03
-6.15
-6.20
-6.15
-6.06
-6.06
-6.27
-6.78
-7.60
-8.68
-9.90
-11.15
-12.23
-12.90
-12.95
-12.17
-10.56
-8.27
-5.60
-2.92
-0.58
1.23
2.44
3.06
3.12
2.67
1.72
0.33
-1.32
-2.97
-4.29
-5.02
-5.12
-4.71
-4.12
-3.65
-3.48
-3.63
-4.01
-4.52
-5.15
-5.95
-6.98
-8.18
-9.35
-10.23
-10.64
-10.53
-9.99
-9.20
-8.31
-7.41
-6.57
-5.91
-5.48
-5.33
-5.35
-5.29
-4.85
-3.77
-1.99
0.32
2.81
5.17
7.17
8.70
9.82
10.61
11.13
11.39
11.44
11.34
11.20
11.16
11.27
11.52
11.75
11.81
11.54
10.93
10.10
9.23
8.54
8.07
7.75
7.42
6.91
6.14
5.11
4.00
2.93
2.07
1.53
1.36
1.58
2.13
2.87
3.59
4.20
4.60
4.88
5.10
5.35
5.56
5.59
5.27
4.48
3.23
1.64
-0.05
-1.51
-2.46
-2.71
-2.19
-1.01
0.63
2.41
4.05
5.41
6.45
7.20
7.78
8.29
8.79
9.29
9.74
10.10
10.38
10.61
10.86
11.22
11.70
12.30
13.00
13.74
14.45
15.00
15.20
14.85
13.88
12.35
10.52
8.74
7.29
6.31
5.80
5.66
5.79
6.15
6.66
7.22
7.62
7.67
7.27
6.46
5.44
4.48
3.76
3.35
3.18
3.10
2.94
2.58
1.95
1.14
0.25
-0.57
-1.22
-1.66
-1.92
-2.08
-2.18
-2.25
-2.25
-2.19
-2.11
-2.13
-2.34
-2.80
-3.48
-4.26
-5.05
-5.80
-6.50
-7.15
-7.78
-8.41
-9.07
-9.73
-10.30
-10.58
-10.36
-9.47
-7.92
-5.92
-3.83
-2.03
-0.74
0.09
0.65
1.20
1.88
2.68
3.50
4.24
4.85
5.42
6.00
6.58
7.08
7.33
7.28
6.93
6.46
6.08
5.92
5.98
6.17
6.32
6.33
6.17
5.87
5.55
5.27
5.07
4.93
4.79
4.58
4.28
3.88
3.42
2.99
2.64
2.44
2.42
2.53
2.75
2.95
3.06
2.94
2.58
1.95
1.11
0.15
-0.86
-1.81
-2.65
-3.32
-3.84
-4.19
-4.43
-4.60
-4.79
-5.08
-5.52
-6.12
-6.80
-7.41
-7.77
-7.78
-7.35
-6.45
-5.13
-3.41
-1.40
0.74
2.76
4.42
5.51
6.02
6.12
6.05
6.02
6.16
6.43
6.77
7.06
7.26
7.33
7.23
6.96
6.52
6.03
5.63
5.47
5.65
6.10
6.67
7.16
7.42
7.35
6.94
6.26
5.40
4.46
3.55
2.73
2.01
1.32
0.57
-0.28
-1.21
-2.12
-2.87
-3.40
-3.70
-3.84
-3.96
-4.15
-4.43
-4.75
-5.08
-5.38
-5.69
-6.10
