1637942893.00
64.000000
-0.00
-0.00
-0.00
-0.00
-0.00
-0.00
-0.00
-0.00
-0.00
-0.00
0.00
0.01
0.01
-0.00
-0.03
-0.05
-0.05
0.00
0.13
0.36
0.66
1.01
1.37
1.72
2.06
2.40
2.79
3.24
3.80
4.44
5.10
5.73
6.32
6.88
7.47
8.18
9.07
10.23
11.57
12.94
14.21
15.31
16.28
17.31
18.66
20.49
23.04
26.10
29.36
32.50
35.33
37.95
40.71
44.12
48.56
54.43
61.33
68.68
75.81
82.31
88.31
94.40
101.46
110.17
121.09
133.65
146.84
159.54
171.07
181.52
191.80
203.59
215.94
231.19
249.71
271.15
293.81
314.47
328.88
332.92
323.91
301.58
268.47
228.06
183.85
138.16
91.98
45.62
-0.31
-44.66
-85.84
-122.56
-154.92
-184.26
-212.38
-241.03
-271.43
-303.63
-336.65
-368.07
-394.46
-412.27
-418.99
-414.38
-400.51
-381.15
-359.78
-338.63
-317.71
-295.82
-271.68
-245.12
-217.46
-190.88
-167.52
-148.44
-133.53
-121.56
-110.70
-99.25
-86.06
-71.03
-54.72
-38.39
-23.17
-10.20
0.09
7.72
12.85
16.04
17.51
17.71
16.91
15.42
13.80
12.66
12.77
14.42
17.64
21.54
25.23
27.43
27.84
27.06
26.32
26.76
28.52
30.74
31.82
30.72
27.53
23.39
19.74
17.06
15.12
13.10
10.88
9.25
9.46
11.96
15.73
18.51
17.96
13.75
7.50
2.13
0.09
2.15
7.13
12.94
18.03
21.72
24.62
27.08
29.35
31.10
31.71
30.57
27.54
22.95
17.39
11.93
7.61
5.21
4.93
6.06
7.70
8.85
9.22
8.98
8.67
8.25
7.57
6.26
4.10
1.59
-0.83
-2.64
-4.05
-5.34
-6.90
-8.59
-9.82
-10.11
-8.93
-6.73
-4.12
-1.80
0.08
1.52
2.91
4.42
5.91
7.29
8.28
8.93
8.85
7.58
4.76
0.58
-3.94
-7.81
-10.04
-10.96
-11.49
-12.68
-14.46
-15.48
-14.13
-9.43
-2.58
4.03
7.50
6.82
3.13
-1.04
-3.00
-2.08
0.90
3.68
4.49
2.15
-3.22
-10.61
-18.44
-24.32
-26.19
-22.60
-14.01
-2.68
8.02
15.19
17.88
16.85
14.64
13.19
13.57
14.90
15.74
14.77
11.71
7.65
3.73
1.34
0.61
1.41
3.07
5.11
7.27
9.21
10.69
10.81
8.79
4.12
-2.65
-9.60
-14.40
-14.79
-10.34
-2.33
6.34
12.64
14.52
11.74
6.24
0.72
-2.07
-1.01
3.58
9.67
14.93
17.38
16.26
12.46
7.48
3.41
1.39
1.83
4.12
7.52
11.35
14.82
17.40
18.01
15.93
10.93
4.15
-2.14
-5.60
-4.67
0.18
7.05
13.00
16.16
16.07
13.57
10.16
6.94
4.45
2.54
1.24
0.47
0.36
0.79
1.62
2.91
4.66
7.13
9.79
11.76
11.53
8.03
1.40
-7.06
-14.76
-19.66
-20.37
-17.21
-11.44
-4.79
1.46
6.46
9.73
11.28
10.90
9.11
6.54
4.02
2.06
0.75
-0.20
-1.23
-2.26
-3.06
-2.99
-1.96
-0.34
1.10
1.32
0.13
-2.25
-4.39
-4.94
-2.84
1.76
7.26
11.74
13.15
11.10
6.46
1.64
-1.27
-1.11
1.52
4.61
6.15
4.82
1.02
-3.84
-7.78
-9.61
-8.99
-6.65
-3.77
-0.88
1.94
5.34
9.32
12.90
14.30
11.56
4.43
-5.41
-14.28
-18.86
-17.39
-11.07
-3.16
3.01
5.44
4.60
2.26
0.78
1.21
3.58
6.90
10.15
12.57
13.66
13.23
10.69
6.03
-0.63
-8.19
-14.86
-18.93
-19.16
-15.53
-9.00
-1.54
4.89
8.78
9.29
6.64
1.49
-4.66
-10.23
-13.25
-12.62
-8.21
-1.61
4.82
8.85
9.54
7.70
4.99
3.22
2.92
3.71
4.42
4.18
3.26
2.34
2.61
4.39
7.10
9.36
9.69
7.37
2.81
-2.46
-6.89
-9.17
-9.20
-7.73
-5.86
-4.44
-3.62
-3.25
-2.96
-3.11
-3.82
-5.15
-6.43
-6.65
-4.99
-1.23
3.76
8.89
12.80
14.74
14.20
11.27
6.85
1.85
-2.33
-4.91
-5.52
-4.67
-3.43
-2.92
-3.84
-5.72
-7.52
-7.53
-4.73
0.93
7.94
13.85
16.12
13.17
5.91
-3.27
-10.62
-13.50
-11.53
-6.55
-1.73
0.81
0.44
-1.19
-2.05
-0.49
3.08
6.95
9.23
8.52
5.46
1.51
-1.21
-1.84
-0.77
0.85
1.73
1.90
2.12
3.94
7.59
12.09
15.04
14.18
8.84
0.18
-8.75
-15.29
-17.62
-16.12
-12.31
-8.06
-4.78
-2.72
-1.87
-1.54
-1.49
-1.17
-0.26
1.68
4.93
8.94
12.85
15.06
14.75
11.57
6.53
1.49
-1.60
-1.72
0.45
3.24
4.23
2.35
-2.04
-6.77
-9.29
-8.20
-3.85
1.46
5.15
5.11
1.57
-3.77
-8.24
-9.77
-8.08
-4.26
-0.47
1.60
1.10
-1.40
-4.77
-7.78
-9.43
-9.52
-7.65
-3.89
1.52
7.52
12.77
15.75
15.47
12.28
7.35
2.81
0.04
-0.31
1.05
2.77
3.67
3.25
1.83
-0.08
-1.77
-3.28
-4.43
-5.08
-4.78
-2.99
0.27
4.44
8.11
10.07
9.39
6.38
2.23
-1.64
-3.98
-4.47
-3.48
-2.15
-1.45
-2.18
-4.69
-8.43
-12.50
-15.32
-15.78
-13.14
-7.79
-1.00
5.27
9.31
10.17
7.87
3.83
-0.38
-3.17
-4.09
-3.67
-3.06
-3.27
-4.34
-5.42
-4.83
-1.82
3.31
8.81
12.43
12.92
10.70
7.81
6.05
6.39
8.11
9.53
9.46
7.70
5.31
3.39
2.55
2.09
1.02
-1.64
-5.75
-10.05
-13.42
-14.61
-13.30
-9.87
-5.62
-2.14
-0.95
-2.62
-6.12
-9.63
-10.89
-9.13
-5.30
-1.53
0.32
-0.32
-2.28
-3.35
-2.33
0.75
4.41
6.78
6.98
5.47
3.65
2.71
3.26
4.50
5.47
5.12
3.27
0.73
-1.45
-2.15
-1.14
1.10
3.36
4.37
3.42
0.61
-2.97
-5.88
-6.87
-5.47
-2.22
1.65
4.81
6.37
6.29
5.41
4.63
4.67
5.34
5.96
5.61
3.94
1.39
-1.45
-3.72
-5.49
-7.01
-8.72
-10.47
-11.61
-11.16
-8.55
-4.26
0.65
4.77
7.29
8.21
8.05
7.35
6.25
4.87
3.39
2.45
2.70
4.18
6.04
6.76
5.27
1.60
-2.51
-5.26
-5.29
-3.28
-1.14
-0.78
-2.93
-6.28
-8.76
-8.59
-5.85
-1.90
1.13
2.00
0.99
-0.72
-1.56
-1.11
0.03
0.36
-1.23
-4.83
-9.58
-13.83
-16.40
-16.71
-15.02
-11.56
-6.65
-0.39
6.84
13.78
19.05
21.09
19.58
15.05
9.38
4.21
0.76
-0.74
-1.01
-0.48
0.25
1.36
2.59
3.68
4.04
3.37
2.25
1.71
3.14
6.63
11.02
13.85
12.85
7.49
-0.80
-8.81
-13.69
-13.63
-9.53
-3.57
1.57
4.02
3.62
1.10
-2.20
-5.58
-8.42
-10.91
-12.79
-13.32
-11.83
-7.51
-0.94
6.52
12.32
14.58
12.39
6.86
0.37
-4.80
-7.18
-6.97
-5.02
-2.41
0.50
3.76
7.32
10.82
13.19
13.59
11.21
6.36
-0.13
-6.68
-11.38
-12.76
-10.13
-4.42
2.50
7.98
10.11
8.13
2.77
-4.11
-10.49
-14.70
-16.20
-14.90
-11.61
-6.98
-1.85
2.88
6.47
8.35
8.56
7.37
5.52
3.57
2.07
1.22
1.07
1.57
2.24
2.71
2.44
1.39
-0.24
-1.90
-3.02
-3.30
-2.49
-0.95
1.02
2.82
4.14
4.52
3.68
1.72
-1.07
-3.62
-5.11
-5.07
-4.10
-3.25
-3.44
-4.79
-6.21
-6.75
-5.59
-3.29
-1.04
-0.06
-0.58
-1.71
-2.14
-0.83
1.78
4.70
6.48
6.70
5.85
4.79
4.26
3.82
2.82
0.49
-2.78
-5.77
-6.82
-4.92
-0.52
4.95
9.61
12.38
12.86
11.68
9.65
7.56
6.06
5.06
4.36
3.23
1.00
-2.92
-8.25
-13.79
-17.86
-18.97
-16.99
-12.70
-7.68
-3.11
0.53
3.30
5.63
7.37
8.63
9.40
9.95
10.22
9.73
7.36
2.22
-5.18
-12.93
-17.93
-17.96
-12.90
-5.06
2.14
6.54
7.81
7.59
7.50
8.31
9.07
8.29
5.31
0.76
-3.45
-5.68
-5.36
-3.56
-1.92
-1.51
-2.26
-2.70
-1.51
2.10
7.36
12.75
16.09
15.78
11.05
2.34
-8.19
-17.58
-22.50
-21.14
-13.57
-2.28
8.95
16.76
19.27
17.06
12.04
6.67
2.20
-1.15
-3.95
-6.68
-9.19
-11.25
-12.44
-12.80
-12.29
-10.71
-7.64
-2.93
2.75
8.15
11.15
10.44
5.67
-1.66
-9.00
-14.05
-15.48
-13.85
-10.59
-7.69
-5.86
-5.25
-5.06
-4.58
-3.48
-1.82
-0.19
1.31
2.35
3.26
4.11
5.17
6.83
9.06
11.58
13.36
13.21
10.23
4.82
-1.33
-5.97
-7.08
-4.46
0.69
5.98
9.69
11.00
10.27
8.55
6.32
3.56
-0.47
-5.57
-10.79
-14.17
-14.24
-10.95
-6.00
-2.13
-0.93
-2.27
-3.54
-1.97
3.72
12.10
19.48
22.34
19.15
11.80
3.88
-1.17
-2.13
-0.33
1.82
2.36
1.19
-0.86
-2.28
-2.69
-2.46
-2.35
-2.81
-3.38
-3.62
-3.07
-2.22
-1.61
-1.78
-2.52
-3.09
-2.75
-0.95
1.67
4.25
5.43
4.57
1.83
-1.80
-4.69
-6.00
-5.38
-3.72
-2.17
-1.74
-2.62
-4.19
-5.50
-5.53
-4.16
-1.74
0.60
1.88
1.45
-0.47
-2.70
-3.98
-3.21
-0.74
2.16
3.51
1.97
-2.35
-7.84
-11.90
-12.79
-9.93
-4.95
-0.13
2.42
2.12
0.10
-2.03
-2.78
-2.10
-0.99
-0.85
-2.09
-3.66
-3.83
-1.12
4.02
9.84
13.96
15.07
13.38
10.15
6.84
3.61
0.23
-3.97
-8.36
-11.54
-11.83
-8.35
-2.05
4.74
9.27
10.13
7.37
2.66
-2.07
-5.05
-5.38
-3.09
0.89
4.88
7.36
7.07
4.33
0.65
-2.02
-1.96
0.70
4.41
7.00
7.12
5.01
2.28
0.73
0.88
2.16
3.03
3.08
2.90
3.83
6.65
10.83
14.47
15.52
13.20
8.07
2.05
-3.20
-6.63
-8.35
-8.85
-8.50
-7.54
-6.13
-5.18
-5.54
-7.82
-11.64
-15.51
-17.80
-17.44
-14.86
-11.36
-8.57
-7.27
-7.04
-6.63
-4.56
-0.73
4.07
7.96
9.54
8.14
4.51
0.26
-3.07
-4.35
-3.73
-1.97
-0.25
1.08
2.22
4.07
7.11
11.02
14.63
16.36
15.50
12.10
7.36
2.61
-1.16
-3.44
-4.52
-4.76
-4.54
-3.80
-2.62
-1.55
-1.14
-2.33
-5.12
-8.90
-11.86
-12.41
-9.68
-4.16
2.21
7.32
9.30
8.14
4.97
2.08
0.86
1.70
3.52
4.68
4.34
2.37
-0.11
-2.23
-3.19
-3.04
-2.16
-0.87
0.48
1.82
2.57
2.28
0.46
-2.71
-6.07
-7.83
-6.43
-1.61
5.55
12.50
16.81
16.65
11.97
4.43
-3.43
-8.93
-10.72
-8.59
-4.35
-0.25
1.69
0.55
-2.78
-6.65
-9.12
-9.30
-7.35
-4.41
-1.94
-0.90
-1.81
-4.18
-7.08
-8.90
-8.35
-4.50
2.13
9.77
15.96
18.49
16.77
11.96
6.75
3.56
3.49
5.71
8.24
9.47
8.64
6.65
4.57
3.36
2.72
1.74
-0.28
-3.32
-6.15
-7.31
-6.03
-3.01
0.03
1.49
0.81
-0.89
-2.14
-1.64
0.04
1.41
0.72
-2.62
-7.41
-11.54
-12.94
-11.03
-6.83
-2.10
1.80
4.66
6.98
9.21
10.76
10.74
8.03
2.99
-2.95
-7.67
-9.62
-8.89
-6.69
-4.75
-3.98
-4.26
-4.61
-4.33
-3.53
-2.90
-3.45
-5.13
-7.10
-7.68
-5.91
-2.00
2.47
5.28
5.23
2.56
-0.79
-2.71
-1.85
1.26
5.00
7.58
7.90
6.48
4.29
2.59
1.85
2.27
3.55
5.16
6.75
7.51
6.96
4.89
1.96
-0.80
-2.29
-2.00
-0.35
1.90
3.56
4.34
4.12
3.43
2.58
1.67
0.68
-0.45
-1.47
-2.31
-2.60
-2.47
-1.97
-1.24
-0.38
0.77
2.00
3.05
2.93
0.80
-3.57
-9.33
-14.35
-16.39
-14.10
-8.16
-0.88
4.64
6.38
4.26
0.03
-3.44
-4.22
-1.83
2.01
5.06
5.54
3.41
0.34
-1.68
-1.16
1.39
4.41
5.75
4.47
1.12
-2.55
-4.68
-4.76
-3.40
-2.25
-2.41
-3.99
-5.90
-6.60
-5.05
-1.22
3.71
8.20
10.52
10.00
6.67
1.50
-3.96
-8.21
-9.94
-8.92
-5.67
-1.71
1.48
2.95
2.70
1.67
0.90
1.24
2.64
4.44
5.56
5.25
3.46
0.86
-1.33
-2.09
-0.88
1.75
4.48
5.76
4.74
1.98
-0.90
-1.92
-0.28
3.28
6.59
7.49
5.27
0.91
-3.37
-5.69
-5.38
-3.42
-1.36
-0.65
-1.42
-2.58
-2.78
-1.09
2.02
5.07
6.03
3.82
-1.18
-7.05
-11.11
-11.56
-8.27
-3.15
1.15
2.48
0.58
-3.05
-6.22
-7.10
-5.43
-2.13
1.11
2.69
1.90
-0.83
-4.11
-6.40
-6.31
-3.67
0.93
5.94
9.74
11.38
10.70
8.42
5.28
1.91
-1.56
-4.83
-7.49
-8.84
-8.34
-6.17
-2.89
0.15
2.16
2.59
1.64
-0.15
-2.18
-3.85
-4.87
-4.74
-3.30
-0.62
2.56
5.21
6.37
5.63
3.69
1.46
0.15
0.08
1.10
2.47
3.51
3.94
3.69
3.10
2.44
2.41
3.41
5.79
9.08
11.92
13.11
11.58
7.84
3.22
-0.60
-2.84
-3.95
-5.03
-6.97
-9.33
-10.95
-10.52
-7.89
-4.20
-1.29
-0.49
-1.78
-4.08
-5.63
-5.65
-4.08
-1.86
0.12
1.46
2.31
3.14
3.92
4.39
3.79
1.86
-0.99
-3.83
-5.14
-4.22
-1.19
2.56
5.41
5.95
3.86
-0.04
-4.32
-7.34
-8.27
-6.86
-3.86
-0.44
2.21
3.40
3.12
1.92
0.87
0.64
1.74
3.64
5.59
6.67
6.51
5.45
4.14
3.29
2.82
2.24
0.74
-2.01
-5.54
-8.89
-10.80
-10.80
-8.88
-5.86
-2.48
0.62
3.29
5.62
7.15
7.45
5.96
2.91
-0.84
-3.89
-5.08
-3.94
-0.91
2.70
5.75
6.98
6.00
2.84
-1.82
-6.60
-9.90
-10.07
-6.55
0.07
7.44
12.70
13.60
9.89
3.59
-2.33
-5.23
-4.60
-1.72
0.82
1.14
-1.04
-4.51
-7.20
-7.78
-5.99
-2.85
0.42
2.84
4.36
5.64
7.09
9.04
10.88
11.70
10.48
6.91
1.61
-3.98
-7.88
-8.92
-6.78
-2.59
1.96
5.02
5.58
3.65
0.22
-3.17
-5.46
-5.94
-4.98
-3.42
-2.28
-2.22
-3.19
-4.63
-5.45
-4.82
-2.19
2.19
7.50
12.60
15.89
16.30
13.46
8.29
2.50
-1.64
-2.76
-0.64
3.81
8.57
11.62
11.38
7.76
1.68
-4.63
-9.03
-10.20
-8.29
-5.23
-3.12
-3.52
-6.03
-9.12
-10.84
-10.31
-8.16
-5.74
-4.44
-4.46
-5.17
-5.40
-4.59
-3.07
-1.55
-1.06
-1.96
-4.22
-7.12
-9.98
-12.12
-13.23
-13.55
-13.38
-13.18
-12.74
-11.81
-9.95
-7.48
-5.16
-3.70
-3.46
-3.84
-4.18
-3.84
-3.03
-2.20
-1.68
-1.27
-0.24
1.87
5.02
8.30
10.88
12.28
12.61
12.62
12.67
12.84
12.77
12.22
11.10
9.71
8.35
7.09
5.83
4.38
2.99
1.98
1.91
3.01
4.99
7.26
8.88
9.18
7.69
4.53
0.28
-4.13
-7.72
-9.52
-9.03
-6.55
-2.83
0.78
3.23
3.71
2.08
-1.08
-4.82
-7.75
-8.73
-6.91
-2.57
3.15
8.34
11.31
11.20
8.27
4.28
0.91
-0.68
-0.63
-0.03
-0.09
-1.36
-3.25
-4.80
-5.10
-4.13
-2.32
-0.41
1.37
3.30
5.65
8.46
10.94
12.18
11.17
7.80
2.66
-3.12
-8.18
-11.32
-11.52
-8.76
-3.57
2.29
6.84
8.55
6.89
2.99
-1.53
-5.00
-6.91
-7.39
-7.19
-6.85
-6.40
-5.94
-5.28
-4.72
-4.21
-3.91
-3.54
-2.84
-1.52
0.69
3.52
6.59
8.78
9.10
6.85
2.40
-2.90
-7.21
-8.86
-7.67
-4.42
-0.85
1.66
2.50
1.98
0.98
0.07
-0.45
-1.08
-2.26
-4.40
-7.30
-9.97
-10.96
-8.71
-2.94
5.49
13.68
18.42
17.30
10.27
-0.09
-10.00
-15.76
-15.89
-11.15
-4.33
1.79
5.54
6.77
6.83
7.05
8.00
8.89
8.42
5.63
1.05
-3.59
-6.35
-5.99
-3.11
0.52
2.92
3.13
1.75
0.53
1.11
3.73
7.48
10.43
11.14
9.07
4.95
0.13
-4.08
-6.50
-6.81
-5.10
-2.37
0.32
2.24
3.14
3.47
3.74
4.01
3.64
1.75
-2.35
-8.00
-13.62
-17.30
-17.68
-14.88
-10.13
-5.11
-1.06
1.65
3.39
4.51
4.98
4.57
2.97
0.77
-1.03
-1.30
0.49
3.68
6.98
8.76
8.41
5.88
1.94
-2.39
-6.04
-8.06
-7.87
-5.45
-1.87
1.38
2.60
1.40
-1.09
-2.70
-1.47
2.64
7.90
11.42
11.29
7.51
2.33
-1.40
-1.88
0.86
4.94
8.45
10.03
9.70
8.23
6.44
4.65
2.54
-0.07
-3.43
-7.09
-10.61
-13.23
-14.32
-13.43
-10.27
-5.50
-0.12
4.27
6.59
6.43
4.68
2.72
1.53
1.50
1.77
1.71
0.83
-0.41
-1.21
-1.18
-0.59
-0.44
-1.40
-3.59
-5.83
-6.70
-5.27
-2.15
0.80
1.69
-0.48
-4.40
-7.60
-7.27
-2.60
4.71
11.28
13.84
11.60
6.29
1.58
0.12
2.56
7.03
10.47
10.76
7.30
1.30
-5.43
-11.06
-14.70
-15.96
-14.82
-11.73
-7.51
-4.00
-3.05
-5.92
-12.01
-18.96
-23.43
-22.63
-16.17
-6.01
3.81
9.67
9.96
6.18
1.94
0.73
3.92
9.65
14.72
16.19
13.92
10.08
7.68
8.24
10.71
12.45
10.83
5.71
-0.85
-5.61
-6.45
-3.67
0.53
3.32
3.46
1.41
-0.75
-1.33
0.16
2.71
4.44
4.11
1.50
-2.12
-5.14
-5.95
-4.04
-0.04
4.52
7.74
8.58
6.76
3.38
-0.14
-2.36
-2.69
-1.54
0.33
1.76
2.15
1.03
-1.39
-4.54
-7.43
-8.94
-8.66
-6.67
-4.05
-1.70
-0.47
-0.06
0.34
1.65
3.98
6.31
7.40
6.03
2.28
-2.84
-7.47
-9.96
-9.46
-6.11
-1.30
3.15
5.20
3.99
0.02
-4.86
-8.18
-8.32
-5.05
0.11
5.27
8.58
9.43
8.44
6.59
4.78
2.95
0.99
-1.49
-3.88
-5.29
-4.78
-2.32
0.93
3.34
3.40
1.12
-2.40
-5.16
-5.79
-4.19
-1.49
0.58
1.07
-0.19
-2.26
-4.44
-6.43
-8.24
-9.61
-9.62
-7.31
-2.10
4.82
11.11
14.22
12.83
7.90
1.81
-2.33
-3.12
-0.88
2.34
4.32
3.76
0.95
-2.61
-5.27
-5.57
-3.34
0.79
5.60
9.86
12.70
13.64
12.74
10.11
6.32
1.91
-2.35
-5.60
-7.16
-6.54
-3.99
-0.15
3.43
5.27
4.13
-0.01
-5.80
-11.14
-13.54
-11.69
-5.97
1.28
6.96
8.43
5.29
-0.45
-5.57
-7.14
-4.50
0.64
5.17
6.48
3.90
-1.12
-5.97
-8.67
-8.52
-6.59
-4.26
-2.70
-2.20
-2.31
-2.72
-3.06
-3.70
-4.63
-5.63
-6.00
-4.92
-2.22
1.77
5.87
9.11
10.69
10.57
8.94
6.29
3.21
0.39
-1.27
-1.28
0.50
3.03
4.71
4.13
0.95
-3.55
-7.32
-8.35
-6.51
-3.14
-0.33
0.51
-0.23
-1.15
-0.54
1.76
4.73
6.25
4.98
1.09
-3.76
-6.97
-6.84
-2.94
3.25
9.56
13.60
14.08
11.02
5.41
-1.00
-6.86
-10.94
-12.92
-12.83
-11.04
-7.87
-3.62
1.03
5.32
7.86
7.55
4.02
-1.90
-8.45
-13.66
-15.98
-15.05
-11.05
-4.94
2.49
9.92
15.79
18.26
16.08
9.63
0.98
-6.18
-9.05
-6.63
-0.60
5.67
9.19
8.64
5.19
0.99
-1.78
-2.57
-2.07
-1.58
-1.99
-2.84
-2.97
-1.01
3.16
8.56
13.01
14.46
12.06
6.51
0.24
-4.45
-5.86
-4.51
-1.84
0.09
0.22
-1.31
-3.61
-5.19
-5.33
-3.77
-0.99
2.33
5.44
7.43
7.71
5.63
1.55
-3.61
-8.08
-10.22
-9.29
-5.53
-0.34
4.92
8.95
11.14
11.09
8.69
4.24
-1.79
-8.06
-13.17
-15.58
-14.99
-11.72
-7.14
-2.62
1.09
3.62
5.21
5.79
5.41
4.07
2.20
0.41
-0.89
-1.31
-1.19
-0.73
-0.26
0.21
0.72
1.07
1.01
0.18
-1.28
-3.00
-4.18
-4.41
-3.62
-2.05
-0.37
1.06
1.88
2.29
2.28
2.48
3.30
4.85
6.93
8.52
8.80
7.17
3.93
-0.05
-3.46
-5.50
-6.06
-5.34
-4.09
-2.74
-1.64
-0.90
-0.57
-0.54
-0.71
-0.96
-0.98
-1.03
-1.06
-1.41
-2.08
-3.01
-4.10
-5.07
-5.75
-5.54
-4.15
-1.31
2.32
5.47
6.74
5.29
1.63
-2.63
-5.20
-4.80
-1.22
3.92
8.49
11.02
11.20
10.04
8.70
7.89
7.10
5.60
2.72
-1.43
-5.64
-8.79
-9.61
-7.84
-3.81
1.24
5.79
8.33
8.02
5.24
1.25
-2.01
-3.32
-2.42
-0.42
1.31
1.76
0.59
-1.61
-4.59
-7.94
-11.56
-14.79
-16.60
-16.26
-13.82
-10.49
-7.60
-6.00
-5.02
-3.37
-0.10
4.34
8.02
8.95
6.10
0.84
-4.31
-6.55
-5.03
-0.88
3.45
5.63
5.10
2.67
0.33
-0.61
0.20
2.14
4.05
5.41
5.98
6.23
6.27
6.23
5.89
5.11
3.92
2.48
1.47
1.29
2.64
5.40
8.97
11.87
12.60
10.39
5.48
-0.50
-5.84
-9.00
-9.90
-9.23
-7.86
-6.49
-4.89
-3.08
-0.90
1.13
2.53
3.13
3.15
3.40
4.47
6.63
9.15
10.96
10.65
7.69
2.55
-3.41
-7.94
-9.67
-7.96
-4.08
-0.14
1.69
0.34
-3.46
-7.80
-10.34
-9.82
-6.04
-0.38
5.26
9.11
9.99
7.92
3.44
-2.08
-7.29
-10.74
-11.58
-9.58
-5.28
0.09
5.00
7.98
8.39
6.05
1.77
-3.06
-7.07
-8.93
-8.43
-5.81
-2.12
1.63
4.51
5.88
5.62
3.65
0.27
-3.90
-7.63
-9.59
-8.75
-5.19
-0.13
4.78
7.98
9.19
8.89
8.16
7.33
5.91
3.26
-1.01
-6.01
-10.35
-12.31
-11.27
-7.76
-3.36
0.12
1.59
0.87
-0.95
-2.74
-3.34
-2.68
-1.49
-0.73
-1.17
-2.75
-4.90
-6.59
-7.40
-7.21
-6.34
-4.82
-2.04
2.30
8.04
13.34
16.01
14.25
8.20
0.08
-7.01
-10.22
-8.77
-3.60
2.88
8.60
12.18
13.28
12.36
9.80
6.30
2.29
-1.39
-4.24
-5.81
-6.03
-5.04
-3.02
-0.55
1.76
3.04
2.98
1.79
0.56
0.55
2.23
5.08
7.32
7.55
5.27
1.80
-0.85
-1.37
0.22
2.05
2.21
-0.41
-4.88
-9.02
-10.30
-7.34
-0.77
7.20
13.59
16.31
14.59
9.50
2.97
-2.91
-6.83
-8.67
-8.90
-8.49
-7.76
-6.71
-4.92
-2.49
-0.17
1.04
0.24
-2.16
-4.84
-5.93
-4.41
-0.63
3.73
6.34
5.95
2.80
-1.35
-4.57
-5.68
-4.92
-3.34
-1.97
-1.19
-0.33
1.27
3.87
6.67
8.41
7.91
4.71
-0.20
-5.21
-8.33
-8.67
-6.27
-2.53
0.85
2.62
2.40
0.97
-0.66
-1.62
-2.06
-2.35
-2.87
-3.58
-3.64
-2.51
-0.05
2.67
4.35
3.81
1.16
-2.34
-4.95
-5.09
-2.83
0.65
3.37
4.04
2.71
0.81
0.09
1.31
3.96
6.03
5.79
2.43
-2.94
-7.96
-10.22
-8.42
-3.40
2.87
7.69
9.38
7.92
4.68
1.57
-0.26
-0.58
-0.42
-0.54
-1.55
-2.96
-3.90
-3.80
-2.48
-0.65
1.31
2.94
4.36
5.31
5.37
4.06
0.88
-3.79
-9.02
-13.20
-15.12
-14.14
-10.68
-5.74
-0.66
3.24
5.66
6.74
7.40
8.32
10.02
12.24
14.07
14.52
12.71
8.99
4.11
-0.53
-4.18
-6.61
-8.20
-9.60
-10.61
-10.79
-8.99
-5.09
-0.01
4.17
5.12
2.00
-4.24
-10.55
-13.91
-12.35
-6.55
1.24
8.13
12.24
13.38
12.18
9.74
6.31
2.19
-2.34
-6.16
-8.00
-7.28
-4.20
-0.32
3.12
5.15
6.15
6.90
7.90
8.93
9.04
7.67
4.70
1.28
-1.17
-1.77
-0.52
1.61
3.67
4.72
4.75
3.88
2.67
1.32
-0.04
-1.46
-3.01
-4.28
-4.83
-3.74
-0.65
4.30
9.88
13.96
14.67
10.57
2.22
-8.31
-17.58
-22.65
-22.10
-16.69
-8.75
-0.84
4.74
6.93
5.26
0.08
-7.37
-14.83
-19.16
-17.85
-10.22
1.01
11.30
16.04
13.56
5.98
-2.39
-7.47
-8.40
-7.08
-6.89
-9.44
-13.79
-17.30
-17.26
-13.28
-6.89
-0.66
3.93
6.72
8.80
11.13
13.46
14.94
14.29
11.40
6.62
1.37
-2.95
-5.28
-5.23
-3.56
-1.18
0.53
1.14
0.80
0.59
1.66
4.25
7.60
9.80
9.60
6.54
2.06
-1.71
-3.09
-1.90
0.24
1.26
-0.48
-4.27
-8.00
-8.66
-4.53
3.63
13.01
19.97
22.33
19.79
14.32
8.00
2.14
-2.90
-7.42
-10.93
-12.41
-10.61
-5.92
-0.21
3.74
3.85
0.12
-5.72
-10.87
-13.41
-12.64
-9.52
-5.39
-1.65
0.40
0.39
-1.81
-5.10
-7.97
-8.69
-6.59
-2.44
1.74
3.69
2.53
-1.12
-5.09
-7.22
-6.46
-3.05
1.58
6.01
9.12
10.83
11.40
11.30
10.72
9.42
7.03
3.40
-0.74
-4.22
-5.47
-4.09
-0.93
2.08
2.81
0.72
-3.13
-6.20
-6.40
-3.14
1.93
6.22
7.74
6.23
3.24
0.68
-0.33
-0.37
-0.50
-1.52
-3.13
-3.91
-2.86
0.20
4.01
6.92
7.47
5.56
2.25
-1.02
-3.02
-3.78
-3.89
-4.34
-5.33
-6.32
-6.29
-4.63
-1.78
1.09
2.27
1.05
-2.22
-5.86
-7.87
-7.00
-3.48
1.00
4.60
5.68
4.47
2.01
-0.24
-1.36
-1.57
-1.69
-2.81
-4.61
-6.23
-6.10
-3.69
0.31
4.11
5.76
4.58
1.10
-2.84
-5.65
-6.18
-4.56
-1.68
1.26
2.80
2.16
-1.01
-5.61
-9.72
-11.01
-8.02
-1.05
8.04
15.95
20.21
19.62
15.04
8.24
1.36
-3.94
-6.79
-6.34
-2.62
4.10
12.04
18.78
21.58
19.12
12.05
2.86
-4.79
-8.45
-7.12
-2.16
3.85
8.46
10.19
9.04
5.75
1.68
-2.15
-4.70
-5.52
-4.38
-1.52
2.28
6.11
8.69
9.35
7.64
4.06
-0.56
-5.14
-8.75
-11.39
-13.20
-14.75
-15.95
-16.19
-14.49
-10.28
-4.11
2.50
7.34
8.97
6.93
2.18
-3.60
-8.41
-10.67
-9.60
-5.27
0.87
6.67
9.57
8.11
2.46
-5.32
-12.07
-15.37
-14.40
-10.45
-5.66
-2.02
-0.03
1.02
1.88
2.86
3.11
1.52
-2.41
-7.90
-13.04
-15.67
-14.57
-10.19
-4.00
1.74
5.84
8.19
9.88
12.12
14.85
16.97
16.63
13.15
7.52
2.48
0.86
3.73
9.71
15.34
17.46
14.94
9.73
4.99
3.39
4.97
7.39
7.53
3.46
-4.06
-12.44
-18.24
-19.28
-15.31
-7.93
0.09
6.42
9.27
8.53
5.17
1.00
-2.05
-3.03
-2.13
-1.00
-1.27
-4.00
-8.18
-11.80
-12.61
-9.36
-3.01
4.10
8.89
9.70
6.36
0.90
-4.48
-7.91
-8.93
-8.45
-7.30
-6.26
-4.80
-2.53
0.80
4.47
7.14
7.73
5.60
1.65
-2.66
-5.46
-5.64
-3.02
1.34
5.47
7.55
6.18
1.86
-3.80
-8.12
-8.93
-5.67
0.10
5.24
7.32
5.40
1.22
-2.80
-4.40
-3.30
-0.85
1.21
1.80
1.73
2.30
4.89
9.21
13.68
16.40
16.15
13.36
9.25
5.63
3.21
1.96
0.86
-0.92
-3.69
-7.26
-10.41
-12.01
-11.11
-8.01
-3.68
0.07
1.64
0.51
-2.84
-6.64
-9.51
-10.60
-10.54
-10.25
-10.55
-11.28
-11.17
-9.28
-5.32
-0.11
5.03
8.80
10.68
11.04
10.25
8.98
7.28
5.28
2.73
-0.48
-4.29
-8.55
-12.31
-14.38
-13.41
-9.08
-2.53
3.54
6.39
4.60
-1.19
-8.10
-13.18
-14.35
-11.83
-7.37
-3.26
-0.95
-0.36
-0.29
0.73
3.19
6.66
9.71
11.01
10.18
7.69
5.28
4.31
5.55
8.14
10.56
11.09
9.02
5.35
1.87
0.78
3.02
8.04
13.64
17.19
16.53
11.23
2.91
-5.63
-11.13
-11.90
-8.23
-2.69
1.73
2.82
0.21
-4.40
-8.81
-11.04
-10.67
-8.28
-5.05
-1.83
1.26
4.20
7.09
9.33
10.51
10.42
9.28
7.52
5.18
2.35
-1.19
-4.98
-8.53
-11.00
-12.03
-11.58
-10.02
-7.97
-5.61
-3.25
-0.84
1.10
2.06
1.81
0.77
-0.05
0.14
1.44
2.70
2.74
0.80
-2.35
-4.91
-5.12
-2.14
2.99
8.16
10.94
10.24
6.65
2.16
-1.01
-1.92
-0.84
0.69
1.48
1.15
0.42
0.21
0.67
1.21
0.49
-1.98
-5.63
-8.61
-9.24
-6.92
-2.86
0.57
1.54
-0.51
-4.20
-7.53
-8.87
-7.82
-4.99
-1.27
2.44
5.83
8.32
9.38
8.18
4.46
-1.12
-6.95
-10.91
-11.54
-8.42
-2.81
3.39
8.04
9.77
8.30
4.20
-1.09
-6.07
-9.14
-9.62
-7.56
-3.95
-0.17
2.80
4.43
4.83
4.20
2.90
1.21
-0.16
-0.33
1.24
4.41
7.75
9.37
7.51
2.05
-5.33
-11.76
-14.45
-12.41
-6.56
0.49
6.04
8.25
7.15
4.06
0.67
-1.60
-2.43
-1.95
-0.73
0.95
2.86
4.71
5.89
5.52
3.46
0.26
-2.39
-3.01
-1.06
2.43
5.34
5.83
3.48
-0.23
-3.03
-3.20
-0.87
2.26
4.22
4.01
2.33
0.75
0.65
2.00
3.77
4.69
4.21
2.89
1.44
0.10
-1.77
-5.00
-9.77
-14.77
-17.72
-16.81
-11.63
-4.11
2.90
6.74
6.68
3.90
0.91
-0.02
1.90
5.75
9.39
10.86
9.26
5.40
1.14
-1.44
-1.01
2.09
6.44
9.83
10.68
8.54
4.34
-0.29
-4.15
-6.93
-9.32
-11.84
-14.40
-15.66
-14.03
-8.71
-0.49
7.90
13.42
13.79
9.20
1.68
-5.54
-9.90
-10.68
-8.65
-5.61
-2.90
-1.21
-0.32
-0.18
-0.93
-2.69
-5.33
-7.71
-8.52
-6.77
-3.19
0.42
1.87
0.10
-3.94
-8.30
-10.49
-9.31
-4.79
1.81
8.84
14.84
18.74
20.21
19.26
16.85
13.98
11.86
10.96
10.95
11.12
10.74
9.62
7.58
4.92
1.45
-2.68
-6.99
-10.59
-12.38
-11.99
-9.48
-6.07
-2.92
-1.45
-2.25
-4.99
-8.69
-11.43
-11.55
-8.20
-2.26
4.12
8.09
7.94
4.16
-0.98
-4.21
-3.61
0.59
5.71
8.31
6.01
-0.95
-9.55
-15.88
-16.47
-10.81
-1.20
8.01
12.73
11.27
5.11
-1.68
-5.32
-3.93
0.87
5.50
6.45
2.60
-4.39
-11.17
-14.50
-13.25
-8.28
-2.03
3.22
6.11
6.25
4.36
1.38
-1.29
-2.91
-3.02
-2.10
-0.99
-0.19
0.34
1.56
3.90
6.94
8.88
7.67
2.52
-5.07
-11.87
-14.99
-13.05
-7.38
-0.40
5.53
9.71
12.44
13.97
14.12
12.05
7.79
2.43
-1.67
-2.45
0.44
5.27
9.03
9.81
7.48
3.97
1.38
0.57
0.37
-1.42
-6.06
-13.04
-19.50
-22.35
-19.88
-13.12
-5.12
0.62
1.80
-1.38
-7.25
-13.18
-17.41
-19.12
-18.47
-16.12
-12.55
-8.27
-3.37
1.72
6.84
11.76
16.24
19.94
22.28
22.85
21.35
18.44
14.88
11.71
9.38
7.81
6.87
6.07
5.28
3.83
1.09
-3.38
-9.18
-14.76
-17.79
-16.23
-10.08
-1.28
6.58
10.67
10.11
6.62
3.27
2.44
4.89
9.08
12.96
14.81
14.12
11.33
7.38
3.35
-0.22
-2.71
-4.18
-4.76
-4.95
-5.11
-5.17
-4.82
-3.37
-0.84
2.02
3.78
3.29
0.28
-3.97
-7.03
-6.93
-2.85
3.61
9.65
12.12
9.48
2.57
-5.83
-12.07
-13.89
-10.90
-4.95
1.57
6.63
9.42
10.13
8.92
6.18
2.11
-2.19
-5.28
-5.49
-2.11
3.82
10.03
13.68
13.02
7.88
-0.05
-8.79
-16.83
-23.54
-29.27
-33.93
-36.84
-36.36
-31.26
-21.29
-8.14
4.91
14.32
17.51
14.36
6.71
-2.13
-9.23
-12.61
-11.68
-7.08
0.07
8.07
15.30
19.89
20.54
16.80
9.28
-0.16
-9.29
-15.84
-18.55
-16.81
-11.33
-3.26
5.96
14.52
20.94
24.00
23.60
20.16
15.22
10.14
6.03
3.27
1.60
0.77
0.43
0.71
1.27
1.71
1.13
-0.96
-4.04
-6.75
-7.16
-4.47
0.76
6.58
10.90
12.68
12.23
10.90
9.55
8.35
6.51
3.65
0.18
-2.59
-3.37
-2.17
-0.08
0.89
-0.23
-3.28
-6.75
-9.14
-10.06
-10.00
-10.34
-11.61
-13.69
-15.44
-15.99
-15.05
-13.15
-11.43
-10.57
-10.81
-11.22
-10.44
-6.90
-0.08
9.13
18.32
24.31
25.06
20.37
12.50
4.80
0.27
0.08
3.03
6.57
8.18
7.02
3.59
-0.36
-3.42
-5.05
-5.93
-7.68
-11.29
-16.81
-22.35
-25.19
-22.61
-13.71
-0.19
14.36
25.59
30.83
29.45
23.12
14.30
5.60
-0.94
-4.16
-3.35
1.18
8.12
15.09
19.62
19.88
15.35
6.97
-3.51
-13.58
-21.01
-23.70
-20.97
-13.31
-3.04
6.30
11.65
11.03
4.90
-4.89
-15.58
-24.86
-31.17
-33.27
-30.56
-22.83
-11.36
1.23
11.07
14.94
11.62
2.85
-7.13
-13.93
-14.76
-10.17
-3.18
2.30
3.78
1.60
-1.80
-3.18
-1.18
3.40
7.53
8.56
5.56
0.01
-5.05
-7.27
-5.98
-2.89
-0.19
0.54
-0.37
-1.09
0.37
5.10
12.33
20.32
26.69
29.84
28.84
23.59
15.16
5.30
-3.23
-7.92
-7.05
-1.38
6.40
12.71
15.14
14.12
11.86
11.51
14.29
19.23
23.34
23.86
19.72
11.97
3.48
-3.42
-7.26
-8.45
-8.14
-7.66
-7.51
-7.52
-7.76
-8.38
-10.41
-14.37
-19.94
-25.60
-29.12
-28.73
-24.02
-16.56
-8.69
-2.76
0.45
1.37
0.98
0.23
-0.82
-2.03
-3.35
-3.82
-2.60
0.68
5.16
8.86
9.75
6.52
0.17
-7.02
-11.73
-12.08
-8.09
-1.99
3.03
4.89
3.24
-0.10
-2.85
-3.34
-1.67
0.59
2.01
2.10
2.04
3.07
6.03
10.13
13.67
15.05
13.65
10.40
6.65
3.80
2.03
0.85
-0.64
-2.81
-5.23
-6.98
-7.04
-5.57
-3.30
-1.77
-1.90
-3.64
-5.95
-7.35
-6.86
-4.36
-1.22
0.92
0.60
-2.46
-6.96
-10.93
-12.49
-11.39
-8.61
-6.26
-5.84
-7.43
-9.70
-10.38
-8.10
-2.64
4.33
10.84
15.23
17.07
16.91
15.97
15.44
15.63
16.51
17.33
17.37
16.20
14.00
11.20
8.27
5.51
2.57
-0.63
-4.08
-6.96
-8.15
-6.78
-3.06
1.22
3.88
2.82
-2.45
-10.61
-19.12
-25.15
-27.16
-25.11
-21.04
-17.29
-15.63
-15.95
-16.48
-14.90
-9.49
-0.66
9.82
19.05
24.85
26.29
24.13
19.96
15.17
10.59
5.74
0.25
-6.03
-11.89
-15.33
-14.48
-8.86
-0.49
7.54
11.53
9.90
3.56
-4.16
-9.49
-10.30
-6.75
-1.50
2.70
3.90
2.16
-1.12
-4.09
-5.30
-4.54
-2.06
1.03
3.77
5.20
5.00
3.39
0.95
-1.19
-2.19
-1.38
0.93
4.07
7.04
9.35
11.16
12.92
15.23
17.64
19.32
18.88
15.70
10.01
2.95
-3.99
-10.08
-15.00
-18.93
-21.42
-21.57
-18.07
-10.63
-0.82
8.58
14.04
13.62
7.29
-2.49
-12.30
-19.12
-21.11
-18.18
-11.22
-2.29
6.74
14.03
18.41
19.48
17.59
13.57
8.38
3.19
-1.31
-4.16
-5.11
-4.33
-2.61
-1.16
-0.96
-2.63
-5.58
-9.17
-12.23
-14.00
-14.06
-12.04
-8.11
-2.79
2.55
6.47
7.60
5.64
1.59
-2.80
-5.84
-7.00
-6.48
-5.13
-3.35
-1.10
1.89
5.52
8.92
11.22
11.94
12.00
12.70
15.09
18.76
21.92
22.59
19.40
13.41
6.75
1.85
-0.27
-0.23
0.49
0.79
0.85
1.23
2.61
4.29
4.75
2.24
-3.95
-12.85
-22.22
-29.19
-32.09
-30.54
-25.99
-20.70
-16.56
-14.45
-13.92
-13.76
-12.65
-10.20
-6.63
-2.90
-0.00
1.69
2.02
1.65
1.11
1.08
1.96
4.09
7.56
12.07
17.16
21.77
24.98
25.63
23.23
17.84
10.57
3.24
-2.31
-4.60
-3.93
-1.56
0.39
0.46
-1.77
-5.54
-9.11
-10.99
-9.96
-6.25
-0.69
4.84
8.54
9.30
6.84
2.33
-2.79
-6.76
-8.84
-8.99
-7.90
-6.25
-4.34
-2.40
-0.62
-0.09
-1.55
-5.48
-10.77
-15.25
-16.74
-14.00
-8.03
-1.05
4.15
6.41
6.39
5.93
7.07
10.46
15.71
21.32
26.30
29.72
31.18
30.05
25.62
17.74
7.10
-4.11
-13.66
-19.70
-22.16
-22.32
-21.94
-22.27
-22.80
-22.24
-18.77
-12.29
-4.06
3.36
7.78
8.75
7.41
6.13
6.21
7.78
9.37
9.56
8.02
5.88
5.24
7.11
11.15
14.98
16.20
13.48
7.76
1.60
-2.64
-3.56
-1.95
0.56
2.03
1.67
-0.22
-2.71
-4.50
-5.02
-3.89
-1.73
0.53
1.33
-0.75
-6.33
-14.48
-22.44
-27.18
-26.33
-20.25
-11.55
-4.13
-0.91
-2.18
-6.10
-9.65
-11.03
-10.02
-8.14
-6.85
-6.53
-6.46
-5.39
-3.15
-0.46
0.71
-0.77
-4.66
-9.11
-11.52
-10.20
-4.97
2.44
9.98
15.97
20.45
24.51
29.34
35.10
40.02
41.60
37.72
28.57
16.41
4.84
-2.99
-5.68
-3.61
1.19
6.64
10.76
12.44
11.19
7.31
2.02
-3.15
-6.32
-6.77
-4.89
-2.52
-1.63
-3.28
-7.13
-11.59
-15.45
-18.11
-20.30
-22.89
-26.15
-29.15
-29.82
-26.45
-18.37
-7.00
5.14
15.19
21.31
23.40
22.52
20.33
17.46
13.75
7.93
-0.87
-12.07
-23.24
-30.65
-31.27
-24.21
-12.21
-0.09
7.04
6.65
0.16
-8.14
-13.25
-12.57
-6.74
0.66
6.02
7.28
5.00
1.54
-1.13
-2.10
-2.05
-1.93
-2.14
-2.05
-0.69
2.23
5.94
8.33
7.82
3.70
-2.68
-8.60
-11.09
-8.29
-0.65
9.51
18.42
23.09
22.20
16.72
9.32
2.80
-0.80
-1.22
0.69
3.27
5.48
6.53
6.39
5.19
3.15
0.84
-1.12
-1.88
-1.49
-0.49
-0.03
-0.71
-2.25
-3.83
-4.39
-4.00
-3.26
-3.28
-4.71
-7.63
-11.46
-15.16
-17.84
-18.42
-16.17
-10.56
-2.11
7.41
15.60
20.09
20.01
15.99
10.16
4.18
-0.75
-4.38
-6.91
-8.21
-8.47
-7.82
-7.13
-7.01
-7.74
-8.56
-8.61
-7.58
-5.87
-4.70
-4.39
-4.10
-1.81
4.03
13.34
23.50
30.37
30.76
23.63
11.51
-1.20
-10.20
-13.17
-10.46
-4.33
2.15
7.01
8.82
7.50
3.48
-2.07
-7.38
-10.84
-11.35
-9.39
-6.31
-3.99
-3.04
-2.77
-1.62
1.79
7.00
12.35
15.46
15.08
11.43
6.52
2.32
-0.07
-0.73
-0.96
-1.78
-3.81
-6.46
-8.73
-9.42
-7.83
-4.19
0.93
6.09
10.18
11.83
10.45
6.28
0.55
-4.49
-6.91
-5.49
-1.07
4.24
7.95
8.74
7.44
6.11
7.11
10.57
14.56
15.63
11.65
2.91
-7.72
-16.56
-21.75
-23.79
-25.27
-27.94
-31.72
-34.12
-32.07
-24.41
-12.51
-0.39
8.31
11.64
10.99
9.66
10.49
14.43
19.58
23.14
22.85
18.94
13.26
8.34
5.31
3.33
0.88
-3.37
-8.39
-11.88
-11.09
-5.10
4.41
13.88
19.55
19.61
14.30
6.33
-1.40
-6.65
-8.65
-8.07
-6.18
-4.55
-3.92
-4.89
-7.01
-9.72
-12.27
-13.91
-14.20
-12.65
-9.31
-4.38
1.06
5.79
8.46
8.44
6.08
2.36
-1.08
-3.06
-2.52
0.64
6.16
12.83
18.79
22.27
21.69
17.18
10.07
2.91
-2.14
-3.90
-2.71
-0.12
2.43
3.80
3.99
3.11
1.27
-1.81
-6.44
-12.07
-17.45
-20.43
-19.56
-14.79
-8.16
-2.58
-0.80
-3.71
-9.81
-16.33
-20.08
-19.70
-15.18
-8.18
-0.89
4.99
8.27
8.93
7.46
5.20
3.39
3.13
4.81
7.86
11.04
12.57
11.56
8.00
3.15
-1.39
-4.13
-4.26
-2.24
1.02
4.34
6.98
8.68
9.41
8.54
5.19
-0.99
-9.36
-17.17
-21.18
-18.90
-10.66
0.32
9.40
12.99
10.60
4.36
-1.93
-5.63
-6.13
-4.92
-4.24
-5.31
-8.14
-11.29
-13.11
-12.04
-7.98
-1.75
5.06
10.83
14.68
16.53
17.17
17.16
16.91
15.74
12.84
8.14
2.28
-2.78
-5.41
-4.59
-1.15
3.44
7.14
8.71
8.20
6.33
4.46
3.29
2.90
2.37
0.68
-2.52
-6.47
-9.56
-10.29
-7.52
-1.78
5.40
11.83
15.66
15.86
12.49
6.88
0.34
-5.49
-9.83
-12.36
-13.05
-12.17
-9.82
-6.54
-3.05
-0.69
-0.41
-2.96
-7.85
-13.54
-18.15
-20.09
-19.06
-15.51
-10.86
-6.15
-2.09
1.04
3.18
4.06
3.52
1.52
-1.16
-3.59
-4.58
-3.57
-0.88
2.65
5.56
7.07
6.76
5.33
3.84
3.50
5.06
8.37
12.56
15.88
16.94
14.89
10.30
4.75
0.28
-1.43
-0.16
3.27
6.74
8.63
8.14
5.60
2.21
-0.76
-2.54
-3.41
-3.74
-4.04
-4.25
-4.02
-3.17
-1.84
-0.84
-0.68
-1.85
-3.82
-5.87
-7.21
-7.45
-6.73
-5.11
-3.03
-0.66
1.54
3.29
4.28
4.61
4.62
4.42
4.19
3.53
2.47
1.11
-0.15
-0.90
-1.22
-1.32
-1.58
-2.08
-2.68
-3.10
-3.51
-4.36
-5.81
-7.74
-9.11
-8.88
-6.51
-2.78
0.74
2.35
1.35
-1.45
-4.50
-6.02
-5.45
-3.20
-0.50
1.71
3.22
4.31
5.56
6.61
6.72
4.80
0.60
-4.65
-8.66
-9.14
-5.24
1.90
9.33
14.16
14.53
10.91
5.54
0.99
-0.98
-0.40
1.60
3.26
3.66
2.65
0.80
-1.27
-3.55
-6.15
-9.19
-11.97
-13.31
-11.70
-6.79
0.43
7.75
12.37
12.60
8.43
1.81
-4.51
-7.87
-7.22
-3.26
2.14
6.66
9.03
8.78
6.72
3.85
1.14
-0.80
-2.02
-2.56
-2.65
-2.06
-0.66
1.54
4.01
5.82
6.08
4.46
1.47
-1.76
-3.58
-3.21
-0.56
3.41
7.12
9.08
8.19
4.45
-1.65
-8.68
-15.12
-19.25
-19.94
-17.22
-11.92
-5.90
-0.71
2.57
3.95
3.95
3.20
1.97
-0.04
-2.80
-5.90
-7.99
-7.77
-4.51
1.17
7.57
12.49
14.20
12.51
8.22
3.34
-0.36
-1.71
-0.76
1.39
3.69
5.09
5.54
5.09
4.23
3.15
1.68
-0.06
-1.99
-3.46
-4.01
-3.35
-2.00
-0.70
-0.20
-0.84
-2.05
-3.27
-3.83
-3.74
-3.15
-2.35
-1.57
-0.90
-0.65
-0.63
-0.95
-1.21
-1.14
-0.71
-0.15
-0.14
-0.80
-2.00
-2.70
-2.12
0.16
3.44
6.35
7.67
6.84
4.53
1.72
-0.63
-2.30
-3.54
-4.61
-5.60
-5.96
-5.36
-3.41
-0.69
2.11
4.11
4.84
4.33
2.97
1.61
0.73
0.87
1.92
3.34
4.36
4.17
2.72
0.46
-1.53
-2.53
-2.29
-1.47
-0.96
-1.42
-2.82
-4.28
-4.90
-4.03
-1.85
0.75
2.66
2.89
1.25
-1.92
-5.45
-8.31
-9.48
-8.69
-6.06
-2.47
1.15
4.05
5.63
6.03
5.50
4.52
3.43
2.27
1.00
-0.44
-1.79
-2.70
-2.66
-1.45
0.83
3.64
6.08
7.52
7.46
6.17
4.14
2.20
0.83
0.12
-0.04
-0.28
-0.81
-1.84
-2.95
-3.73
-3.68
-2.81
-1.47
-0.08
0.91
1.53
1.92
2.24
2.33
1.89
0.83
-0.59
-1.74
-1.98
-0.96
0.85
2.63
3.37
2.52
0.48
-1.84
-3.31
-3.46
-2.33
-0.82
0.23
0.56
0.16
-0.39
-0.86
-1.13
-1.41
-1.61
-1.66
-1.27
-0.10
1.56
3.11
3.66
2.72
0.51
-2.16
-4.32
-5.29
-5.05
-4.04
-2.64
-1.14
0.56
2.32
3.79
4.35
3.51
1.41
-1.27
-3.12
-3.31
-1.74
0.68
2.63
3.21
2.35
0.80
-0.69
-1.46
-1.76
-2.02
-2.50
-2.97
-2.82
-1.76
0.01
1.52
1.91
0.81
-1.13
-2.75
-2.97
-1.48
1.11
3.61
4.79
4.23
2.09
-0.59
-2.71
-3.60
-3.17
-1.99
-0.76
-0.07
0.03
-0.25
-0.52
-0.78
-1.50
-2.88
-4.94
-6.67
-6.84
-4.37
0.70
7.02
12.68
15.80
15.66
12.59
7.81
2.73
-1.52
-4.17
-5.05
-4.36
-2.86
-1.16
-0.16
-0.17
-0.96
-1.92
-2.29
-1.75
-0.47
0.75
1.21
0.45
-1.13
-2.73
-3.76
-3.90
-3.68
-3.50
-3.65
-3.72
-2.95
-0.83
2.48
5.80
7.72
7.19
4.37
0.31
-3.35
-5.20
-4.86
-2.61
0.44
3.42
5.48
6.24
5.65
3.87
1.31
-1.53
-3.96
-5.47
-5.42
-3.76
-0.89
2.34
4.92
6.23
5.94
4.55
2.53
0.63
-0.70
-1.32
-1.23
-0.95
-0.78
-1.25
-2.35
-4.07
-5.98
-7.64
-8.81
-9.19
-8.92
-7.90
-6.33
-4.11
-1.64
0.66
2.33
3.12
3.32
3.13
2.91
2.51
1.77
0.50
-1.08
-2.50
-3.57
-3.70
-2.95
-1.01
1.86
5.40
8.89
11.30
11.91
10.22
6.73
2.25
-1.98
-5.27
-7.17
-7.61
-6.99
-5.31
-2.90
0.24
3.60
6.57
8.45
8.56
6.75
3.19
-0.74
-3.58
-3.74
-0.86
4.25
9.67
13.17
13.61
10.79
6.07
0.93
-3.07
-5.15
-5.08
-3.26
-0.47
2.70
5.54
8.24
10.83
13.62
16.29
17.48
15.81
10.28
1.83
-7.17
-13.30
-14.49
-11.07
-5.68
-2.05
-2.39
-6.76
-12.55
-16.98
-18.16
-16.39
-13.37
-10.81
-9.22
-7.54
-4.35
1.26
8.52
15.42
19.25
18.32
12.84
4.55
-3.64
-9.39
-11.41
-10.06
-6.83
-3.30
-0.71
0.77
1.31
1.59
1.99
2.73
3.72
4.69
5.36
5.22
4.28
2.64
1.01
-0.02
-0.40
-1.00
-2.85
-6.24
-10.43
-13.54
-14.21
-12.23
-9.31
-7.86
-9.35
-13.25
-16.90
-17.56
-13.64
-6.34
1.33
6.32
7.13
4.72
1.29
-0.76
-0.57
1.39
3.75
5.53
6.80
8.19
10.34
12.77
14.47
14.16
11.69
7.84
4.21
2.13
1.92
3.41
5.74
8.60
11.52
14.10
15.34
13.96
9.21
1.41
-7.54
-15.25
-19.50
-19.62
-16.41
-11.55
-6.89
-3.38
-1.47
-0.80
-0.97
-1.39
-1.53
-0.87
0.60
2.17
3.19
3.09
2.17
1.06
0.55
0.75
1.04
0.64
-1.06
-3.49
-5.81
-6.88
-6.27
-4.51
-2.84
-2.35
-3.06
-4.35
-4.73
-3.50
-0.74
2.33
4.15
3.78
1.40
-1.46
-2.96
-1.97
0.99
4.40
6.43
6.20
4.35
2.33
1.42
1.60
1.98
1.50
0.05
-1.60
-2.57
-2.24
-1.20
-0.35
-0.23
-0.65
-0.88
-0.45
0.42
0.47
-1.24
-5.12
-9.93
-13.80
-14.90
-12.77
-8.72
-4.74
-2.50
-1.94
-1.85
-0.26
3.54
8.63
12.83
13.91
11.63
7.60
5.01
6.23
11.38
18.13
22.93
23.39
19.21
12.66
6.61
3.03
1.85
1.75
1.34
-0.03
-1.44
-1.85
-0.55
1.90
4.18
5.06
3.68
0.31
-4.24
-8.53
-11.52
-12.21
-10.48
-6.82
-2.52
0.75
2.07
1.39
0.11
-0.25
1.18
3.65
5.40
5.09
2.38
-1.35
-4.68
-6.61
-7.58
-8.54
-9.78
-10.84
-10.42
-8.13
-4.91
-2.96
-4.13
-8.36
-13.30
-15.56
-13.05
-5.91
3.04
10.48
14.00
13.74
11.41
8.82
6.80
4.58
1.10
-4.01
-9.25
-12.32
-11.44
-6.60
-0.13
5.09
6.81
5.43
3.22
3.06
6.40
11.96
16.76
17.60
13.60
6.59
0.33
-2.31
-0.84
2.93
5.97
6.82
5.93
5.54
7.14
10.56
13.66
13.73
9.73
2.56
-5.14
-11.13
-14.18
-14.75
-13.91
-12.66
-11.76
-11.42
-12.00
-12.96
-13.38
-12.03
-8.66
-4.70
-2.72
-5.19
-12.21
-21.47
-28.77
-30.81
-26.87
-19.28
-11.79
-6.90
-5.20
-4.80
-3.58
-0.18
4.96
10.23
14.25
16.56
18.01
19.40
21.19
22.41
21.78
18.35
12.74
7.11
3.58
3.36
5.44
7.68
7.98
5.93
2.95
1.05
1.45
3.41
5.12
4.61
1.78
-2.02
-4.92
-6.01
-6.27
-7.23
-9.98
-13.44
-15.18
-12.73
-5.76
3.55
11.49
14.47
11.50
4.03
-4.39
-10.67
-13.12
-11.86
-8.15
-2.88
3.29
10.14
16.62
21.23
22.35
19.17
12.37
3.71
-4.30
-10.03
-12.48
-11.72
-8.17
-2.87
2.38
5.58
4.68
-0.39
-7.56
-12.67
-12.26
-5.54
4.59
12.85
15.08
10.28
1.80
-5.33
-7.25
-3.88
1.25
3.90
1.40
-5.14
-12.39
-16.58
-15.93
-11.27
-5.12
-0.21
2.23
2.29
1.38
0.60
0.81
2.14
4.38
7.48
10.81
13.57
14.05
10.98
3.73
-6.45
-16.71
-23.73
-24.97
-20.37
-11.78
-2.52
4.71
8.45
8.70
6.48
2.51
-2.52
-8.33
-13.97
-18.15
-19.28
-16.35
-9.46
0.46
11.48
21.71
28.89
31.47
28.55
20.68
9.99
-0.73
-8.63
-12.71
-13.09
-11.28
-8.64
-5.55
-1.65
4.00
11.23
19.04
25.46
28.70
27.72
22.67
14.88
6.15
-1.14
-5.34
-5.34
-1.66
3.99
9.09
11.23
9.65
5.19
0.28
-2.70
-2.28
1.05
5.33
8.18
7.72
3.81
-2.64
-9.62
-15.77
-20.32
-23.37
-25.37
-26.09
-25.24
-22.05
-16.60
-9.71
-2.99
1.96
4.16
3.51
1.18
-1.73
-3.99
-5.35
-6.04
-6.56
-7.31
-8.07
-8.35
-7.54
-5.62
-2.88
-0.27
1.50
2.12
1.80
1.27
1.00
1.48
2.29
2.98
2.98
2.10
0.82
-0.49
-0.95
-0.31
1.40
3.52
5.11
5.14
3.20
-0.15
-3.67
-5.35
-4.06
0.40
6.60
12.24
15.32
14.90
11.91
8.07
5.37
4.47
4.82
5.19
4.40
2.39
-0.13
-1.91
-2.39
-1.60
-0.48
0.13
-0.02
-0.72
-1.09
-0.79
0.23
1.46
2.47
2.70
2.18
1.05
-0.37
-1.47
-2.01
-1.60
-0.75
-0.14
-0.54
-2.46
-5.31
-8.17
-9.75
-9.44
-7.36
-4.11
-0.55
2.72
5.25
6.61
6.25
4.10
0.52
-3.17
-5.55
-5.65
-3.15
1.08
5.81
9.53
11.36
10.57
7.13
1.51
-5.10
-10.94
-14.66
-15.12
-12.61
-7.96
-2.80
1.33
3.63
3.89
2.98
1.83
1.41
1.99
3.08
3.74
3.06
0.95
-1.90
-4.20
-4.95
-3.64
-0.92
2.06
4.28
5.08
4.57
3.01
1.16
-0.54
-1.57
-1.86
-1.59
-0.97
-0.49
-0.15
-0.16
-0.23
-0.25
0.08
0.84
1.68
2.30
2.11
1.04
-0.80
-2.55
-3.28
-2.45
0.15
3.74
7.24
9.58
10.31
9.31
7.11
4.16
0.88
-2.23
-4.75
-5.87
-5.42
-3.52
-1.20
0.42
0.45
-1.29
-3.96
-6.44
-7.48
-6.88
-4.85
-2.21
0.07
1.44
1.79
1.81
2.12
3.42
5.50
7.31
7.76
5.92
2.08
-2.63
-6.46
-8.38
-7.98
-5.88
-3.16
-0.67
0.71
0.77
-0.82
-3.50
-6.27
-7.46
-5.78
-0.77
6.36
12.93
16.28
14.64
8.70
0.96
-5.32
-7.72
-5.83
-1.09
3.98
7.49
8.68
8.07
6.63
5.03
3.69
2.30
1.00
-0.14
-0.39
0.38
1.91
3.44
3.92
3.01
0.52
-2.81
-6.27
-8.59
-9.06
-7.49
-4.43
-1.23
0.83
0.70
-1.33
-4.38
-7.17
-8.77
-9.11
-8.39
-7.25
-5.91
-4.46
-2.51
-0.23
1.92
3.50
3.63
2.34
-0.09
-2.53
-4.20
-4.44
-3.55
-2.55
-2.22
-3.13
-4.40
-4.70
-2.40
2.67
9.27
14.99
17.33
15.38
9.76
2.95
-2.70
-5.51
-5.40
-3.52
-1.11
0.97
2.87
4.67
6.62
7.95
7.70
5.18
0.56
-4.84
-9.19
-10.67
-8.70
-3.78
2.39
7.72
10.78
10.85
8.55
5.15
2.35
0.84
0.61
0.88
0.82
0.32
-0.40
-0.38
0.57
2.00
2.66
1.51
-1.66
-5.83
-8.81
-9.28
-6.91
-3.13
0.25
1.77
1.43
0.16
-1.11
-1.78
-2.40
-3.41
-5.14
-7.15
-8.50
-8.87
-8.63
-8.89
-10.00
-11.50
-11.82
-9.54
-4.40
2.14
7.51
9.73
8.24
4.59
1.17
0.07
1.72
4.81
7.77
9.21
9.14
8.12
6.75
5.12
3.07
0.74
-1.41
-2.29
-1.66
0.27
2.18
2.70
1.41
-1.25
-3.88
-5.48
-5.49
-4.52
-3.31
-2.40
-1.87
-1.71
-2.21
-3.41
-5.48
-7.41
-8.13
-6.50
-2.42
2.89
7.57
9.72
8.93
5.94
2.65
0.65
0.81
3.03
6.31
9.53
11.24
10.60
7.06
1.22
-5.19
-9.91
-10.95
-7.96
-2.10
4.21
8.94
11.02
10.83
9.49
7.63
5.51
2.59
-0.94
-4.53
-6.72
-6.47
-3.66
0.67
4.57
6.62
6.11
3.89
1.14
-1.02
-2.20
-2.81
-3.18
-3.63
-3.69
-3.07
-1.63
0.15
1.30
1.09
-0.72
-3.47
-6.34
-8.06
-7.97
-5.96
-2.56
0.93
3.34
3.60
1.77
-1.39
-4.33
-5.75
-5.39
-3.78
-2.36
-2.06
-3.39
-5.80
-8.41
-10.27
-10.95
-10.51
-8.95
-6.61
-3.33
0.56
4.67
8.36
10.62
11.01
9.26
6.01
1.95
-1.86
-4.71
-6.05
-5.73
-4.12
-1.94
-0.23
0.42
-0.32
-1.85
-3.07
-3.14
-1.78
-0.00
1.15
0.83
-0.45
-1.48
-0.93
1.25
4.04
6.06
6.35
5.45
4.42
4.52
5.96
7.96
9.33
9.17
7.96
6.82
7.36
9.86
13.45
15.80
14.80
9.55
1.08
-7.54
-13.17
-13.64
-9.26
-2.64
3.06
5.47
4.50
1.72
-0.51
-0.83
0.78
2.95
4.15
3.62
1.51
-1.08
-3.09
-3.71
-3.37
-2.96
-3.52
-5.62
-8.45
-10.52
-10.05
-6.45
-0.64
4.70
6.98
5.04
-0.32
-6.17
-9.65
-8.89
-4.34
1.65
6.35
7.93
6.19
2.17
-2.41
-6.37
-8.85
-9.64
-8.58
-5.53
-0.99
4.11
7.87
9.03
7.11
3.09
-0.96
-3.20
-2.72
-0.14
3.09
5.34
5.97
4.96
2.91
0.58
-1.36
-2.11
-1.44
0.74
3.53
5.66
6.11
4.76
2.76
1.40
1.78
3.30
4.39
3.10
-1.44
-8.37
-15.49
-19.79
-19.54
-14.36
-6.11
2.34
7.92
8.81
4.90
-2.04
-9.01
-13.67
-14.81
-13.17
-10.37
-8.15
-7.36
-7.49
-7.74
-7.17
-6.01
-4.78
-4.26
-4.45
-4.48
-3.47
-0.51
3.98
8.75
12.07
12.80
10.90
7.57
4.98
4.71
7.36
11.84
16.18
18.06
16.54
12.16
6.53
1.79
-1.18
-2.26
-2.58
-2.80
-2.84
-2.00
0.39
3.83
6.97
7.96
6.15
2.20
-1.94
-4.21
-3.85
-1.29
1.89
4.31
5.25
4.94
3.81
2.24
0.37
-1.83
-4.03
-5.63
-5.91
-4.89
-2.86
-0.58
1.17
2.12
1.97
1.05
-0.50
-2.13
-3.28
-3.30
-1.92
0.45
2.87
4.08
3.33
0.61
-3.06
-6.21
-7.47
-6.25
-3.13
0.89
4.55
7.43
9.41
10.81
11.45
10.53
7.20
1.14
-6.59
-14.15
-18.97
-19.38
-15.34
-8.28
-0.83
4.79
7.05
6.00
2.61
-1.41
-4.61
-5.98
-5.06
-2.47
1.02
4.23
6.21
6.24
4.17
0.55
-3.52
-6.18
-6.20
-3.15
1.76
6.52
8.89
7.59
2.75
-4.37
-11.46
-16.90
-19.46
-18.80
-15.28
-9.70
-3.44
2.12
5.21
5.11
2.20
-1.57
-3.66
-2.27
2.98
10.12
16.36
19.09
17.40
12.19
5.85
1.05
-0.94
0.05
2.86
6.25
8.83
9.89
8.94
6.07
1.96
-2.51
-5.89
-7.51
-7.20
-5.64
-3.55
-1.46
0.46
2.27
3.58
3.95
2.87
0.52
-2.01
-3.29
-2.14
1.06
4.90
7.04
6.07
1.84
-4.18
-9.43
-12.03
-11.16
-7.69
-3.12
0.61
2.69
2.94
1.77
-0.22
-2.75
-5.41
-7.83
-9.04
-8.41
-5.57
-0.91
4.49
9.27
12.06
12.07
8.82
2.74
-5.01
-12.34
-16.50
-15.62
-9.25
0.20
8.85
12.83
10.63
3.88
-3.76
-8.58
-9.10
-6.05
-2.17
0.38
0.73
-0.50
-1.86
-2.43
-1.97
-1.22
-0.40
0.47
1.62
3.40
5.34
6.70
6.36
3.96
-0.43
-5.60
-9.99
-12.09
-10.89
-6.67
-0.41
5.83
10.38
11.88
10.51
7.46
4.55
3.50
4.58
7.26
9.74
10.74
9.45
6.29
2.44
-0.65
-1.69
-0.64
1.99
4.78
6.40
6.07
3.88
0.84
-1.92
-3.28
-3.44
-2.93
-2.86
-3.87
-5.76
-7.91
-9.36
-9.57
-8.21
-5.70
-2.37
1.20
4.28
6.55
7.56
7.71
7.19
6.52
5.51
3.82
0.98
-3.13
-7.72
-11.75
-13.84
-13.68
-11.74
-9.23
-7.07
-5.45
-3.71
-0.83
3.32
8.22
12.34
14.41
13.94
11.21
7.27
2.98
-0.96
-4.52
-7.41
-9.29
-9.58
-7.85
-4.50
-0.22
3.74
6.57
7.68
7.33
6.00
4.16
2.07
-0.83
-4.86
-10.02
-15.36
-19.23
-19.97
-16.99
-11.03
-3.89
2.20
5.98
7.06
6.37
5.31
5.16
6.53
9.06
11.95
13.89
14.23
12.71
9.94
6.74
3.82
1.54
-0.23
-1.55
-2.49
-2.57
-1.55
0.41
2.80
4.37
4.33
2.36
-0.95
-4.66
-7.59
-9.14
-9.00
-7.27
-4.68
-1.82
0.52
1.87
2.08
1.53
0.60
-0.27
-0.74
-1.10
-1.51
-2.33
-3.32
-4.34
-5.05
-5.13
-4.67
-3.61
-2.23
-0.57
1.13
2.52
3.35
3.37
2.87
2.33
2.34
3.13
4.53
5.76
6.26
5.81
4.32
2.36
0.18
-1.96
-4.06
-5.87
-7.06
-7.40
-6.72
-5.50
-4.33
-3.92
-4.10
-4.56
-4.68
-4.07
-3.27
-2.74
-3.04
-3.89
-4.56
-4.06
-1.73
1.98
5.76
8.11
8.16
5.95
2.65
-0.22
-1.41
-0.58
1.29
2.81
2.63
0.76
-1.88
-3.80
-3.94
-2.49
-0.40
1.06
1.54
1.60
2.69
5.44
9.40
13.04
14.23
12.05
7.15
1.82
-1.63
-1.83
0.74
4.24
6.29
5.31
1.86
-2.24
-4.32
-2.82
1.79
7.29
10.89
10.68
6.63
0.56
-5.15
-8.54
-8.98
-6.97
-3.40
0.46
3.68
5.17
4.52
1.64
-2.26
-5.30
-6.01
-3.90
-0.35
2.78
3.51
1.65
-1.77
-4.96
-6.38
-5.92
-4.13
-2.45
-1.55
-1.74
-2.76
-4.08
-5.35
-6.21
-6.64
-6.45
-5.89
-5.09
-4.19
-3.30
-2.25
-1.33
-0.55
-0.46
-0.98
-1.98
-2.57
-1.91
0.24
3.33
5.52
5.21
1.39
-4.80
-11.02
-14.47
-13.32
-8.19
-1.13
4.68
7.21
5.88
2.06
-2.02
-4.37
-3.81
-0.87
3.36
7.20
9.65
10.36
9.80
8.92
8.34
8.57
9.02
9.23
8.55
6.94
4.98
3.20
2.27
1.87
1.66
0.88
-0.55
-2.34
-3.90
-4.51
-4.07
-2.51
-0.45
1.58
2.57
2.00
-0.50
-4.60
-8.92
-12.00
-12.33
-9.82
-5.25
-0.48
2.86
3.85
2.63
0.31
-2.28
-4.31
-5.58
-5.96
-5.19
-3.27
-0.19
3.16
6.06
7.62
7.71
6.69
5.41
4.67
4.76
5.68
6.40
6.21
4.21
0.66
-3.46
-6.69
-7.60
-5.97
-2.31
1.59
4.29
4.89
3.72
1.72
-0.05
-0.85
-0.88
-0.42
-0.14
-0.13
-0.18
-0.05
0.66
1.74
3.03
3.89
4.07
3.09
1.21
-1.36
-4.26
-6.97
-9.36
-10.94
-11.42
-10.34
-7.49
-3.27
1.33
4.69
5.89
4.43
1.17
-2.42
-4.77
-5.04
-3.49
-1.14
0.70
1.70
1.85
1.93
2.39
3.09
3.41
2.61
0.56
-2.31
-4.69
-5.75
-4.96
-2.76
-0.10
2.31
3.86
4.70
5.02
5.15
5.16
5.01
4.66
3.90
2.77
1.12
-0.66
-2.09
-2.54
-1.70
0.05
1.83
2.50
1.70
-0.29
-2.21
-3.04
-2.46
-1.30
-0.66
-1.01
-1.97
-2.09
-0.42
2.98
6.66
8.68
7.98
4.70
0.58
-2.68
-3.90
-3.56
-2.98
-3.53
-5.54
-7.94
-9.30
-8.37
-5.40
-1.74
0.93
1.61
0.88
0.30
1.51
4.80
9.11
12.33
12.76
9.97
5.03
-0.15
-4.09
-5.97
-6.19
-5.37
-4.09
-2.37
0.21
3.60
7.47
10.50
11.40
9.07
3.80
-2.90
-8.73
-11.42
-10.22
-5.84
-0.42
3.97
5.99
5.58
3.60
0.98
-1.28
-2.83
-3.40
-3.14
-2.27
-1.19
-0.23
0.50
0.92
1.43
2.15
3.08
3.77
3.65
2.43
0.05
-3.00
-6.25
-8.85
-10.30
-9.95
-7.60
-3.58
1.15
5.23
7.73
8.26
7.53
6.40
5.58
5.11
4.22
2.35
-0.52
-3.25
-4.48
-3.41
-0.65
2.05
2.88
0.78
-3.73
-9.29
-14.20
-17.43
-18.52
-17.38
-14.15
-8.89
-2.46
3.83
7.90
8.42
5.21
0.03
-4.37
-5.74
-3.40
1.09
5.43
7.39
6.25
2.87
-1.09
-3.82
-4.58
-3.38
-0.73
2.88
7.12
11.36
14.66
15.74
13.80
9.06
3.03
-2.18
-4.96
-4.79
-2.57
0.32
2.57
3.82
4.20
4.25
4.00
2.97
1.03
-1.81
-4.59
-6.27
-5.97
-3.65
-0.14
3.36
5.39
5.14
2.38
-2.04
-6.56
-9.29
-8.81
-4.97
1.03
7.02
11.28
12.85
11.88
8.98
4.67
-0.83
-7.12
-12.73
-15.64
-13.67
-6.53
3.70
13.17
17.72
15.76
8.47
-0.47
-7.32
-10.02
-8.93
-6.32
-4.13
-3.53
-4.24
-5.57
-6.83
-8.09
-9.32
-10.22
-10.17
-8.51
-5.48
-1.70
1.65
3.93
4.85
4.72
3.92
2.74
1.73
1.22
1.98
4.03
6.69
8.60
8.22
4.99
-0.41
-5.72
-8.71
-7.87
-3.50
2.46
7.68
10.02
8.87
4.96
0.29
-3.54
-5.50
-5.66
-4.79
-3.51
-2.37
-1.20
-0.11
0.96
1.67
1.95
2.09
2.54
3.87
6.19
9.21
11.85
13.24
12.78
10.63
7.72
4.73
2.50
1.05
0.33
0.05
-0.01
0.18
0.26
-0.00
-1.20
-3.46
-6.54
-9.57
-11.43
-11.60
-10.07
-7.88
-5.91
-4.81
-4.32
-3.90
-3.05
-1.78
-0.73
-0.39
-1.02
-1.86
-2.27
-1.66
-0.16
1.39
2.35
2.09
1.01
-0.42
-1.62
-2.39
-3.05
-3.80
-4.89
-5.86
-6.13
-5.17
-3.05
-0.55
1.48
2.33
2.29
2.15
2.94
4.79
7.07
8.40
7.90
5.45
2.06
-0.60
-1.65
-0.71
1.40
3.70
5.36
5.93
5.61
4.26
2.28
-0.23
-2.58
-4.24
-4.84
-4.41
-3.56
-2.68
-2.13
-1.80
-1.36
-0.66
0.26
1.18
1.94
2.37
2.60
2.47
2.15
1.41
0.43
-0.59
-1.28
-1.33
-0.96
-0.74
-1.74
-4.46
-8.91
-13.97
-18.10
-20.05
-18.97
-15.33
-9.91
-4.04
1.09
4.43
5.37
3.96
0.87
-2.61
-4.97
-4.92
-2.28
2.12
6.37
8.68
8.36
5.83
2.83
0.67
0.17
0.88
1.94
2.46
2.43
2.54
3.35
5.22
7.31
9.03
9.72
9.81
10.24
11.59
13.81
15.74
16.26
14.39
10.43
5.23
0.01
-4.33
-7.62
-9.95
-11.70
-12.38
-11.36
-7.93
-1.87
5.51
12.20
15.62
14.54
9.30
2.32
-3.53
-6.21
-5.53
-3.44
-2.04
-2.84
-5.25
-7.63
-8.25
-6.61
-3.79
-1.28
-0.19
-0.10
-0.05
1.19
3.58
6.00
7.02
5.49
1.82
-2.85
-6.70
-8.74
-8.82
-7.71
-6.51
-5.71
-5.30
-4.40
-2.46
0.51
3.60
5.27
4.66
2.02
-0.86
-2.08
-0.59
2.60
5.10
4.74
0.74
-5.12
-10.02
-11.18
-8.23
-2.65
2.90
6.33
7.50
7.22
6.85
6.69
6.16
4.17
0.74
-3.23
-6.12
-6.53
-4.48
-0.72
3.11
5.79
6.79
6.10
4.13
1.35
-1.62
-4.49
-6.84
-8.57
-9.76
-10.35
-10.26
-8.65
-5.11
0.67
7.52
13.44
16.27
14.73
9.51
2.66
-2.84
-5.15
-3.84
-0.35
3.21
5.12
5.03
4.17
3.65
4.35
5.52
5.78
3.69
-1.24
-7.91
-14.30
-17.77
-16.87
-11.53
-3.70
3.69
7.90
7.50
3.18
-2.79
-7.35
-8.56
-6.26
-2.07
1.58
3.07
2.30
0.88
0.49
1.97
4.72
7.22
7.61
5.20
0.85
-3.84
-6.94
-7.67
-6.15
-3.44
-0.62
1.75
3.46
4.73
5.40
5.54
5.21
4.65
4.32
4.47
4.96
5.28
5.06
4.05
2.43
0.54
-1.53
-3.97
-6.98
-10.09
-12.17
-11.88
-8.77
-3.54
1.58
4.31
3.65
0.23
-3.67
-5.75
-4.62
-0.93
3.41
6.22
6.23
3.90
0.67
-1.64
-2.23
-1.44
-0.31
0.13
-0.03
-0.11
0.94
3.14
5.57
6.49
4.61
0.07
-5.43
-9.40
-10.37
-8.15
-4.37
-0.74
1.77
3.13
4.19
5.17
5.81
5.14
2.94
-0.19
-2.73
-3.23
-1.44
1.62
3.97
4.29
2.16
-1.17
-4.05
-5.21
-4.25
-1.96
0.71
2.50
2.90
1.60
-0.96
-3.93
-6.19
-6.42
-4.33
-0.22
4.32
7.59
8.43
6.46
2.65
-1.81
-5.47
-7.59
-7.68
-5.77
-2.19
2.41
6.86
10.01
10.69
8.81
4.97
0.74
-2.56
-4.21
-4.26
-3.74
-3.19
-3.01
-2.61
-1.50
0.49
2.63
3.77
3.38
1.53
-0.40
-1.14
0.07
2.66
5.06
5.93
4.61
1.98
-0.77
-2.33
-2.35
-1.41
-0.51
-0.61
-1.70
-3.50
-5.03
-5.61
-4.82
-2.91
-0.45
1.89
3.27
3.49
2.39
0.51
-1.45
-2.70
-2.87
-2.12
-0.87
0.14
0.71
0.68
0.53
0.65
1.03
1.52
1.60
1.34
0.76
0.48
0.79
1.61
2.34
2.31
1.26
-0.59
-2.40
-3.49
-3.28
-2.20
-1.05
-0.62
-1.39
-2.95
-4.66
-5.80
-6.06
-5.43
-3.99
-1.87
0.96
4.17
7.36
9.66
10.45
9.33
6.60
3.23
0.14
-1.59
-1.77
-0.56
1.31
3.10
4.07
4.01
3.02
1.49
0.14
-0.86
-1.23
-1.10
-0.67
-0.08
0.42
0.68
0.27
-0.88
-2.83
-4.94
-6.58
-7.16
-6.42
-4.85
-3.06
-1.77
-1.07
-1.02
-1.36
-1.86
-2.60
-3.50
-4.33
-4.52
-3.72
-1.72
0.92
3.38
4.89
5.08
4.49
3.81
3.95
4.91
6.22
6.79
5.68
2.90
-0.92
-4.18
-5.80
-5.12
-2.73
0.39
3.36
5.65
7.32
8.15
7.90
5.92
2.29
-2.07
-5.34
-5.83
-3.12
1.76
6.21
8.04
6.04
0.92
-5.19
-10.04
-12.01
-11.04
-7.82
-3.70
0.45
3.99
6.44
7.47
6.66
4.21
0.79
-2.32
-4.03
-3.83
-2.25
-0.63
-0.05
-0.76
-1.86
-2.16
-0.84
1.57
3.71
4.27
2.78
0.26
-2.04
-2.97
-2.46
-1.09
0.34
1.23
1.62
1.65
1.60
1.45
1.21
1.01
0.98
1.18
1.05
-0.00
-2.49
-6.00
-9.40
-11.11
-9.90
-5.60
0.83
7.38
12.04
13.24
10.85
5.87
0.11
-4.61
-7.24
-7.32
-5.55
-2.87
-0.52
0.80
0.94
0.41
0.22
1.11
3.32
5.90
7.25
5.69
0.68
-6.72
-14.13
-18.83
-19.53
-16.42
-11.39
-6.57
-3.37
-1.92
-1.29
-0.40
1.49
3.72
5.40
5.45
3.84
1.41
-0.55
-0.78
0.93
4.18
7.53
9.73
10.09
8.83
7.02
5.62
5.22
5.35
5.18
3.75
1.21
-1.47
-2.98
-2.28
0.17
3.06
4.55
3.78
1.14
-1.85
-3.74
-3.96
-2.91
-1.81
-1.19
-1.28
-1.54
-1.50
-1.23
-0.97
-1.14
-1.58
-1.99
-2.10
-2.05
-2.25
-2.81
-3.50
-3.56
-2.55
-0.44
1.87
3.39
3.50
2.11
-0.16
-2.71
-4.85
-6.25
-6.41
-5.10
-2.30
1.53
5.59
9.04
11.19
11.93
11.07
8.67
4.83
-0.10
-5.04
-8.84
-10.40
-9.52
-6.48
-2.05
3.14
8.70
13.90
17.77
19.02
16.72
10.87
2.85
-5.17
-11.15
-13.83
-13.28
-10.27
-6.18
-2.00
1.48
3.62
4.05
2.52
-0.57
-4.49
-7.85
-9.49
-8.54
-5.22
-0.69
3.24
4.94
4.15
1.56
-1.21
-2.93
-3.14
-2.29
-1.37
-0.91
-0.88
-0.68
-0.13
0.69
0.96
-0.04
-2.23
-4.76
-5.92
-4.72
-1.17
3.20
6.12
5.86
2.25
-2.94
-7.11
-7.82
-4.74
0.62
5.57
7.96
7.34
4.92
2.91
2.76
4.64
7.11
8.50
7.67
4.74
0.98
-2.15
-3.51
-3.14
-1.64
0.05
1.22
1.76
1.69
1.30
0.58
-0.31
-1.34
-2.24
-2.77
-2.79
-2.36
-2.00
-1.83
-2.06
-2.34
-2.20
-1.37
0.12
1.84
3.38
4.19
4.02
2.59
-0.00
-3.34
-6.56
-8.48
-8.09
-5.05
-0.25
4.69
7.78
7.98
5.56
2.03
-0.67
-1.62
-0.77
0.65
1.29
0.43
-1.77
-4.37
-6.68
-8.25
-9.56
-10.80
-11.92
-12.23
-10.88
-7.69
-3.24
0.97
3.71
4.17
2.78
0.67
-0.85
-0.88
0.56
2.81
4.72
5.70
5.51
4.93
4.73
5.35
6.56
7.06
5.81
2.25
-2.58
-6.68
-7.85
-5.13
0.52
6.92
11.20
12.02
9.53
5.47
1.82
-0.25
-0.70
-0.56
-0.65
-1.49
-2.56
-3.11
-2.49
-0.78
1.29
2.86
3.08
2.01
0.12
-1.43
-1.65
-0.17
2.75
5.84
7.75
7.39
4.83
1.13
-1.99
-3.20
-2.41
-0.58
0.37
-0.42
-2.94
-5.60
-6.69
-5.34
-1.97
1.68
3.93
3.71
1.47
-1.66
-3.97
-4.63
-3.72
-2.05
-0.83
-0.62
-1.47
-2.54
-2.96
-2.31
-0.89
0.21
-0.01
-1.96
-4.75
-6.89
-6.97
-4.74
-1.22
1.97
3.18
2.35
0.42
-0.91
-0.40
2.01
5.43
8.20
9.13
7.73
4.94
2.07
0.60
1.05
2.66
3.91
3.07
-0.22
-5.23
-9.91
-12.61
-12.52
-10.03
-6.66
-3.80
-2.56
-2.57
-2.95
-2.37
-0.36
2.79
6.18
8.30
8.55
6.77
4.17
2.05
1.53
3.04
5.72
8.44
9.79
9.30
6.89
3.13
-1.14
-5.01
-7.47
-7.94
-6.15
-3.07
0.21
2.38
2.90
2.18
1.08
0.51
0.34
0.18
-0.78
-2.39
-4.00
-4.58
-3.43
-1.01
1.90
3.92
4.70
4.33
3.51
2.71
1.79
0.58
-1.34
-3.32
-4.61
-4.53
-3.18
-1.31
0.01
0.20
-0.38
-1.26
-1.81
-2.13
-2.56
-3.43
-4.39
-4.56
-3.30
-0.44
2.67
4.56
3.81
0.11
-5.49
-11.33
-15.50
-16.88
-14.86
-10.01
-3.39
3.25
8.05
10.00
8.77
5.60
2.39
1.22
3.03
7.31
12.00
14.65
14.02
10.11
4.81
0.32
-1.45
-0.20
3.06
6.44
8.06
7.47
5.01
2.26
0.50
-0.02
0.02
-0.73
-3.00
-6.59
-9.86
-11.38
-10.21
-6.89
-3.16
-0.51
0.22
-0.17
-0.53
0.12
1.55
2.89
3.15
1.81
-0.55
-3.08
-4.69
-5.17
-4.55
-3.46
-2.51
-2.14
-2.77
-4.09
-5.84
-7.32
-7.91
-7.11
-4.88
-2.01
0.53
1.53
0.88
-1.07
-2.88
-3.08
-0.56
4.90
12.15
19.47
24.48
25.59
22.07
14.87
6.09
-1.63
-6.09
-6.64
-3.95
-0.42
1.72
1.11
-2.07
-6.23
-9.88
-11.92
-12.59
-12.31
-11.53
-9.80
-6.25
-0.69
5.81
10.69
11.87
8.69
3.24
-1.24
-2.12
0.77
4.86
7.04
5.19
0.19
-5.36
-8.72
-8.95
-7.16
-5.28
-4.80
-5.36
-6.16
-6.38
-6.28
-6.79
-8.31
-10.32
-11.09
-9.33
-4.70
1.46
7.28
11.25
13.03
13.59
14.07
15.38
17.03
18.09
17.54
15.16
11.53
7.36
3.39
-0.63
-4.88
-9.43
-13.37
-15.53
-15.17
-12.42
-8.82
-5.94
-5.10
-6.09
-7.55
-7.81
-5.71
-1.48
3.75
8.21
11.06
11.93
11.40
10.12
8.54
6.91
5.11
3.37
1.39
-1.01
-4.09
-7.84
-11.41
-13.72
-13.13
-9.09
-2.03
5.97
12.43
15.03
12.99
7.42
0.57
-4.64
-6.50
-4.62
-0.20
4.78
8.42
9.43
7.68
3.63
-1.19
-5.38
-7.50
-7.15
-4.91
-2.05
-0.14
0.33
-0.61
-2.25
-4.30
-7.14
-11.17
-16.10
-19.94
-20.32
-15.54
-6.43
4.18
12.49
16.02
14.57
9.74
3.99
-1.10
-4.69
-6.72
-7.24
-6.27
-3.98
-0.77
2.52
5.41
7.29
8.21
8.05
6.84
4.91
2.97
2.20
3.14
5.48
7.61
8.09
6.26
2.78
-0.56
-2.45
-2.39
-1.18
0.14
0.71
0.56
0.26
0.35
1.26
2.67
4.28
5.51
6.16
6.10
5.41
4.34
3.07
1.96
0.72
-0.80
-2.91
-5.16
-6.71
-6.61
-4.35
-0.78
2.49
3.28
0.23
-6.75
-16.12
-25.13
-31.12
-31.98
-27.31
-17.86
-5.63
7.16
18.40
26.34
30.13
29.12
23.92
15.85
7.28
0.63
-2.59
-2.41
-0.59
1.09
1.45
1.10
1.16
2.37
4.09
4.63
2.73
-1.35
-5.32
-6.59
-3.68
2.39
8.80
12.65
12.41
8.99
4.26
0.20
-2.64
-4.91
-7.71
-11.50
-15.53
-18.69
-19.62
-18.02
-14.17
-8.90
-3.19
2.20
6.32
8.62
8.43
5.91
1.85
-2.16
-4.53
-4.64
-3.15
-1.84
-2.01
-4.16
-6.84
-8.13
-6.92
-3.77
-1.03
-0.90
-4.54
-10.58
-16.38
-19.26
-17.92
-13.27
-7.25
-1.97
1.72
4.02
5.79
7.69
9.72
11.45
12.19
12.08
11.69
12.11
13.82
16.42
18.54
18.45
15.34
9.51
2.97
-2.25
-4.58
-4.13
-2.08
0.33
2.22
3.85
5.49
7.36
8.73
8.67
6.86
3.55
-0.23
-3.46
-5.58
-6.94
-8.00
-9.17
-10.11
-9.92
-7.83
-3.40
2.59
8.43
11.67
10.38
3.82
-6.80
-18.26
-26.94
-29.63
-25.40
-15.36
-2.68
9.12
17.48
21.21
20.85
17.68
13.39
9.19
5.86
3.71
2.72
2.70
3.36
4.75
6.41
7.84
7.75
5.03
-0.72
-8.70
-16.50
-21.56
-21.96
-17.99
-11.48
-5.27
-1.53
-0.74
-1.90
-3.21
-3.66
-2.99
-2.21
-2.49
-4.42
-7.71
-10.81
-11.92
-9.41
-3.01
6.14
15.57
22.71
25.83
24.20
18.64
10.45
1.62
-6.09
-10.99
-12.15
-9.82
-5.21
-0.78
1.47
0.49
-2.60
-5.62
-6.21
-3.47
1.70
7.47
11.90
14.34
14.86
14.03
12.24
9.62
6.53
3.56
1.57
0.97
1.76
2.81
2.91
1.37
-1.47
-4.36
-6.17
-6.02
-4.19
-1.39
1.17
2.45
2.08
0.27
-1.75
-2.90
-2.34
-0.49
1.44
2.01
0.46
-2.53
-5.72
-7.72
-8.22
-7.82
-7.55
-7.67
-7.39
-5.60
-1.52
3.87
8.61
10.27
7.79
1.80
-5.34
-10.77
-12.68
-10.79
-6.72
-2.61
-0.34
-0.35
-1.63
-2.39
-0.88
3.10
8.61
13.27
14.91
12.57
6.84
0.02
-5.58
-8.18
-7.81
-5.72
-3.61
-2.55
-2.22
-1.53
0.76
4.52
8.53
10.77
9.93
6.35
1.74
-1.60
-2.32
-0.63
1.82
3.38
3.15
1.55
-0.27
-1.68
-2.66
-4.12
-6.19
-8.37
-9.47
-8.34
-5.29
-1.55
0.92
1.26
-0.31
-2.36
-3.27
-2.33
0.03
2.46
3.90
3.68
2.35
0.70
-0.53
-0.90
-0.76
-0.59
-1.21
-2.78
-5.15
-7.32
-8.34
-7.72
-5.43
-2.53
0.11
1.41
1.22
-0.32
-2.51
-4.44
-5.33
-4.25
-1.04
4.00
9.22
12.71
12.59
8.66
2.65
-2.75
-4.91
-3.38
0.53
4.09
5.38
4.15
1.65
-0.19
-0.47
0.76
2.14
2.61
1.63
-0.39
-2.41
-3.53
-2.87
-0.33
4.14
9.61
14.85
18.05
17.78
13.94
7.45
0.46
-5.29
-8.34
-8.57
-6.33
-2.45
1.73
5.01
6.01
4.23
-0.42
-6.77
-13.14
-17.69
-19.22
-17.84
-14.54
-11.05
-8.45
-7.09
-6.03
-4.07
-0.63
4.04
8.36
10.84
10.41
7.26
2.49
-2.67
-7.04
-10.08
-11.33
-10.78
-8.46
-5.15
-1.57
1.83
4.99
8.50
12.35
15.94
17.25
14.61
7.56
-2.02
-10.61
-15.02
-13.76
-8.20
-1.01
4.76
7.56
7.22
4.27
-0.23
-5.50
-10.16
-12.73
-11.85
-7.24
-0.10
7.50
13.23
15.90
15.46
12.88
9.01
4.70
0.36
-3.74
-6.73
-8.09
-7.19
-4.37
-0.28
3.98
7.31
9.03
8.61
6.57
3.65
1.31
0.64
2.02
4.76
7.34
8.50
7.41
4.71
1.47
-0.67
-0.69
1.70
5.92
10.36
13.46
13.95
11.64
6.81
0.54
-6.07
-12.08
-16.30
-18.19
-17.16
-13.60
-8.54
-3.87
-1.48
-2.15
-5.56
-9.75
-12.85
-13.64
-12.77
-11.78
-12.03
-13.48
-14.58
-13.77
-9.93
-4.00
1.86
5.11
4.40
0.47
-4.46
-7.26
-6.10
-0.69
7.05
14.43
19.00
19.56
16.92
12.77
9.31
7.59
7.94
9.29
10.03
8.97
5.68
0.93
-4.29
-8.70
-11.77
-13.33
-13.58
-12.67
-10.31
-6.60
-1.84
2.95
6.49
7.40
5.15
0.61
-4.67
-8.33
-9.01
-6.01
-0.16
7.00
13.59
17.83
18.72
16.06
11.01
4.91
-0.64
-4.69
-7.04
-7.99
-8.01
-7.14
-5.63
-3.36
-0.62
2.42
5.28
7.14
7.17
4.64
-0.43
-6.98
-12.60
-14.89
-12.44
-5.78
2.35
8.76
10.79
8.37
3.21
-1.94
-4.85
-4.88
-2.52
0.81
4.01
6.30
7.64
8.16
8.14
7.85
7.22
6.30
4.70
2.59
0.35
-1.09
-0.87
0.83
2.84
3.09
0.38
-4.82
-10.22
-13.14
-12.25
-8.52
-4.80
-3.51
-5.57
-9.23
-11.80
-11.20
-7.26
-1.91
2.73
5.26
6.12
6.21
6.40
6.49
5.92
4.68
3.64
4.39
7.48
12.14
15.99
16.82
14.10
9.38
5.40
3.65
3.87
3.72
0.98
-4.72
-11.40
-15.80
-16.00
-12.25
-7.54
-4.95
-6.18
-10.05
-13.47
-13.70
-9.87
-3.78
2.12
5.68
6.93
7.43
8.96
12.22
15.93
17.98
16.33
11.11
4.25
-1.12
-2.52
0.65
6.79
12.58
15.21
12.87
5.87
-4.01
-14.13
-22.06
-26.61
-27.53
-25.77
-22.13
-17.61
-12.72
-7.81
-3.39
0.28
2.99
5.14
6.80
7.87
7.79
6.02
2.92
-0.47
-2.20
-1.10
2.82
7.62
10.70
10.26
6.52
1.88
-0.78
0.58
5.40
11.51
16.09
17.63
16.44
13.74
10.73
7.08
2.05
-5.12
-13.56
-20.87
-24.57
-23.27
-17.96
-10.84
-4.47
0.22
3.34
5.60
7.28
7.45
5.40
1.05
-4.04
-8.13
-9.90
-9.51
-8.07
-6.43
-4.94
-2.76
0.36
3.86
5.97
4.88
0.18
-6.62
-12.36
-14.67
-12.61
-7.81
-3.02
-0.49
-0.93
-3.01
-4.94
-5.07
-3.66
-1.56
0.07
1.06
2.32
4.60
8.10
11.43
12.98
11.57
7.77
3.33
0.12
-0.69
0.36
2.21
3.51
3.83
3.60
3.66
4.49
5.68
6.72
6.78
6.04
5.23
5.54
7.68
11.31
15.26
17.52
16.73
12.23
4.96
-3.29
-10.52
-15.29
-17.50
-17.70
-16.99
-15.86
-14.41
-12.22
-8.93
-4.45
1.02
6.47
10.79
12.57
11.20
6.79
0.71
-5.12
-8.81
-8.82
-4.97
1.97
9.80
16.04
18.16
14.92
7.18
-2.60
-11.00
-15.61
-15.54
-12.08
-7.54
-4.09
-2.84
-3.34
-4.85
-6.39
-7.62
-8.44
-9.03
-9.46
-9.66
-9.77
-9.55
-8.93
-7.40
-5.01
-2.11
0.32
1.24
0.69
-0.37
0.35
4.53
12.52
22.28
30.29
33.19
29.39
20.35
9.62
1.55
-1.42
0.68
5.50
10.10
13.23
15.09
16.91
18.89
19.68
16.74
8.56
-3.73
-16.69
-25.75
-28.19
-24.13
-16.60
-9.21
-4.11
-1.25
1.40
5.25
10.31
14.70
16.22
13.73
7.82
0.63
-5.54
-9.02
-9.83
-8.89
-7.83
-7.84
-9.22
-11.56
-13.51
-13.92
-11.88
-7.70
-2.39
2.57
6.12
8.09
8.70
8.52
7.42
5.11
1.26
-3.66
-8.23
-11.29
-12.01
-10.92
-8.82
-6.58
-4.28
-1.63
1.19
3.33
3.29
0.38
-4.92
-10.26
-12.87
-11.00
-4.98
2.65
8.71
10.65
8.21
2.90
-2.87
-7.09
-8.95
-8.94
-8.61
-9.21
-11.66
-15.43
-19.06
-21.00
-20.28
-17.25
-12.59
-7.36
-1.44
5.66
14.30
23.71
31.54
34.80
31.39
21.85
9.11
-2.25
-8.70
-9.56
-6.63
-3.16
-1.39
-1.74
-2.79
-3.11
-2.10
-0.31
0.93
0.90
-0.32
-1.57
-2.01
-1.25
0.17
1.17
0.95
-0.70
-2.75
-4.04
-3.08
0.77
6.84
13.29
17.69
18.22
14.49
8.04
1.00
-4.45
-7.27
-7.66
-5.87
-2.44
2.32
7.68
12.84
16.50
17.97
17.39
15.54
13.59
12.02
10.97
9.79
8.27
6.40
4.48
2.94
1.88
1.59
1.92
2.84
3.78
3.89
2.37
-1.00
-5.28
-9.30
-11.86
-12.93
-13.07
-13.16
-13.68
-14.18
-14.30
-13.85
-13.52
-13.87
-15.10
-16.11
-15.26
-11.69
-6.09
-1.22
0.14
-3.58
-10.97
-18.47
-22.00
-19.14
-10.42
1.46
12.82
21.21
25.81
27.22
26.50
23.99
19.88
13.92
6.67
-0.83
-7.11
-10.66
-10.70
-7.11
-0.85
6.43
12.54
16.17
16.97
15.78
14.06
12.51
11.08
8.80
5.12
0.57
-3.14
-4.51
-3.56
-1.96
-2.71
-7.63
-16.52
-26.66
-34.24
-36.22
-31.73
-22.51
-11.37
-1.64
4.70
7.01
5.91
3.17
0.69
0.28
2.51
6.86
11.27
13.56
12.30
7.81
2.20
-2.00
-2.77
-0.14
4.18
7.87
9.72
10.23
10.94
13.29
16.51
18.39
15.91
7.74
-4.58
-17.24
-26.04
-28.88
-26.12
-20.66
-15.30
-11.81
-10.07
-8.73
-6.88
-4.16
-1.68
-0.07
0.26
-0.12
-0.21
0.63
2.50
4.68
6.73
7.97
8.39
8.15
7.65
7.42
7.85
9.36
11.56
14.12
16.01
16.37
14.77
11.08
6.13
0.80
-3.71
-7.29
-10.00
-12.39
-14.75
-16.73
-17.91
-17.69
-16.49
-14.66
-12.82
-10.66
-7.19
-1.53
6.54
15.39
22.54
25.17
21.86
13.19
1.62
-9.66
-18.18
-22.72
-23.67
-21.73
-17.98
-12.86
-6.42
1.01
8.84
15.52
19.53
19.49
15.75
9.98
4.61
1.47
0.68
1.27
1.61
1.34
1.15
2.41
5.69
9.75
12.30
11.03
5.77
-1.35
-6.80
-8.02
-4.68
1.06
6.11
8.28
6.91
3.03
-1.94
-6.50
-9.63
-10.93
-10.11
-7.58
-4.06
-0.98
0.41
-0.43
-3.19
-6.63
-9.80
-12.07
-13.73
-15.03
-15.93
-15.73
-13.38
-8.57
-1.70
5.66
11.80
15.14
15.19
12.41
8.24
4.48
2.38
2.71
5.07
8.56
11.79
13.75
13.99
12.68
10.75
8.90
7.90
7.60
7.74
7.89
7.87
7.96
8.11
8.34
8.27
7.81
6.83
5.59
4.37
2.67
-0.23
-5.19
-11.77
-18.35
-22.27
-21.45
-15.69
-6.96
1.01
5.05
3.39
-2.82
-10.67
-16.76
-18.80
-16.81
-12.35
-8.18
-6.26
-7.69
-11.76
-16.81
-20.71
-21.72
-19.47
-14.73
-9.40
-5.00
-2.40
-1.06
0.50
3.71
9.44
16.72
23.75
28.28
29.12
26.58
22.27
18.28
15.81
14.96
14.25
12.48
9.11
5.02
2.08
1.71
4.28
8.42
12.15
13.26
10.95
5.80
-0.39
-5.40
-7.84
-7.36
-5.10
-2.41
-0.64
-0.09
-0.35
-0.95
-1.42
-2.17
-3.80
-6.88
-10.91
-14.55
-16.16
-14.74
-10.46
-4.43
1.42
5.82
7.85
7.83
6.67
5.40
5.12
6.06
8.06
10.32
12.15
12.96
12.56
11.08
8.49
5.40
2.36
0.73
1.65
5.58
11.77
18.02
21.92
21.73
18.03
13.11
10.34
11.87
17.86
26.08
33.62
38.63
40.91
42.03
43.55
46.31
50.27
54.78
59.85
66.00
73.97
83.74
94.13
102.73
107.01
105.46
97.80
85.49
70.62
55.56
42.05
30.84
21.41
12.42
2.53
-9.30
-23.52
-40.88
-62.71
-90.71
-125.21
-163.61
-199.76
-225.36
-233.52
-221.76
-193.46
-156.91
-121.41
-93.80
-76.17
-66.58
-61.55
-58.71
-57.72
-59.22
-63.14
-67.52
-69.35
-66.72
-60.36
-53.77
-51.54
-56.61
-68.61
-83.95
-97.61
-105.40
-105.54
-98.54
-86.43
-71.78
-57.23
-45.14
-37.30
-34.12
-34.09
-34.29
-31.06
-21.44
-3.87
21.49
53.44
90.27
130.23
171.46
211.66
248.20
278.37
299.91
311.75
314.15
308.54
296.72
280.14
259.46
234.64
205.34
171.48
133.79
94.00
54.35
17.02
-16.66
-46.58
-73.71
-98.68
-121.71
-142.00
-157.62
-166.43
-166.86
-158.92
-144.63
-127.47
-111.69
-101.45
-100.54
-111.80
-136.37
-172.79
-216.19
-258.68
-291.49
-307.89
-305.72
-287.77
-260.02
-228.52
-196.85
-165.51
-133.62
-101.17
-70.53
-45.72
-30.18
-24.42
-25.25
-27.10
-23.84
-12.02
8.27
33.98
61.43
88.27
114.34
141.16
170.28
201.90
233.71
261.51
281.10
290.21
289.37
281.52
270.28
258.35
246.18
231.53
211.30
181.34
138.78
83.03
16.14
-57.32
-130.66
-196.13
-245.35
-272.86
-277.87
-264.25
-238.70
-208.04
-176.45
-145.28
-111.54
-71.46
-23.06
31.12
84.73
130.18
161.04
174.12
170.63
155.52
135.24
114.44
96.25
81.92
71.51
64.94
62.75
65.59
73.26
83.78
93.75
100.16
101.92
100.13
97.38
95.99
96.67
97.92
96.35
87.94
68.91
37.45
-5.04
-53.61
-100.53
-137.39
-158.05
-159.81
-146.40
-125.90
-107.22
-96.46
-95.04
-100.51
-108.92
-117.71
-126.41
-136.13
-147.33
-158.66
-167.14
-169.66
-164.79
-153.26
-137.81
-121.40
-106.09
-90.80
-72.46
-47.74
-14.66
26.51
73.95
124.74
175.98
224.64
267.03
298.44
313.87
309.89
285.03
244.40
194.44
140.98
87.52
35.77
-12.02
-50.76
-72.54
-70.10
-41.42
6.59
59.50
100.75
118.83
111.89
87.88
59.74
38.72
29.55
30.13
33.91
34.20
27.10
11.59
-11.62
-41.05
-74.67
-109.04
-139.43
-159.86
-165.89
-156.51
-134.93
-107.23
-79.29
-56.10
-40.06
-31.53
-28.04
-25.35
-17.81
-0.65
28.50
67.90
111.27
149.62
174.10
178.68
161.32
124.11
72.10
12.55
-46.19
-96.00
-130.58
-147.17
-147.85
-139.06
-128.28
-122.64
-126.16
-139.09
-159.18
-183.58
-210.08
-237.51
-264.63
-289.09
-307.73
-317.23
-315.57
-302.92
-282.27
-256.21
-226.15
-191.74
-151.20
-102.07
-42.06
30.41
115.30
210.57
311.60
409.50
493.02
551.50
578.31
573.50
543.72
499.41
451.07
405.71
365.39
328.58
292.78
256.61
220.25
185.90
153.85
123.25
92.81
61.45
29.04
-3.67
-35.59
-66.19
-96.05
-126.52
-158.10
-189.47
-217.41
-237.55
-246.19
-242.02
-226.14
-203.49
-181.01
-164.74
-157.80
-159.84
-167.65
-176.89
-184.06
-186.86
-185.84
-183.46
-182.59
-184.90
-190.63
-198.50
-206.75
-213.75
-218.44
-220.48
-219.35
-215.20
-206.88
-193.32
-173.99
-149.73
-122.32
-94.07
-67.25
-43.15
-21.89
-2.14
17.82
39.51
63.45
89.20
115.23
139.56
160.59
177.84
192.58
207.34
225.22
248.74
278.54
312.79
347.21
376.13
393.50
394.21
374.96
335.42
279.16
213.66
149.19
96.03
61.34
46.72
47.84
55.73
60.61
55.00
35.32
1.89
-42.56
-94.29
-149.41
-203.64
-252.55
-292.02
-319.20
-333.55
-336.45
-330.27
-317.09
-297.80
-271.73
-237.30
-192.79
-137.27
-72.04
-0.87
69.82
132.01
178.36
204.72
212.06
206.40
196.82
191.65
195.36
206.84
220.52
229.39
228.40
216.66
197.41
175.89
157.32
145.17
140.51
142.54
149.42
159.06
169.15
176.40
177.75
169.36
148.91
117.26
79.23
42.67
15.22
1.47
0.97
8.66
17.29
20.48
14.92
0.73
-19.48
-42.47
-65.46
-86.52
-104.17
-117.10
-124.08
-124.49
-118.75
-108.35
-95.56
-82.93
-72.86
-67.61
-69.77
-82.08
-106.44
-142.53
-186.25
-230.18
-265.35
-284.47
-284.93
-269.41
-244.09
-215.17
-186.49
-159.38
-134.48
-113.92
-101.36
-100.08
-110.16
-127.24
-144.09
-154.36
-155.91
-151.59
-146.91
-146.39
-149.92
-153.32
-150.43
-136.35
-109.60
-72.40
-28.99
16.23
60.06
100.45
136.26
166.42
189.92
206.02
214.48
216.03
212.04
204.44
195.02
185.03
175.07
165.08
154.76
143.89
132.60
121.29
110.57
100.90
92.43
85.07
78.55
72.71
67.51
63.01
59.23
56.10
53.38
50.79
48.19
45.73
43.86
43.12
43.78
45.66
48.18
50.46
51.64
51.29
49.49
46.64
42.97
38.47
32.37
23.77
12.09
-2.90
-21.30
-43.45
-69.69
-98.83
-128.01
-151.93
-163.97
-158.78
-135.16
-97.28
-53.60
-13.84
14.82
29.59
32.43
27.90
21.00
15.30
13.14
15.85
23.76
35.50
46.80
51.08
41.66
15.32
-25.71
-73.54
-117.33
-147.20
-157.49
-148.68
-126.28
-99.25
-77.06
-67.26
-72.97
-91.64
-115.75
-135.17
-141.70
-131.67
-107.83
-77.09
-46.72
-20.55
2.03
23.36
44.28
61.56
69.21
62.00
39.30
7.18
-23.80
-42.85
-43.61
-26.04
4.53
40.71
75.85
105.58
127.40
138.70
136.51
118.19
84.02
38.87
-7.91
-45.15
-64.14
-61.67
-41.23
-10.53
21.10
46.22
60.49
62.88
54.98
39.27
18.85
-3.36
-24.31
-41.22
-51.82
-54.70
-50.35
-40.75
-28.86
-17.26
-7.35
1.15
9.10
16.62
22.34
23.28
16.86
2.38
-17.70
-38.69
-55.19
-63.24
-61.99
-53.46
-42.00
-31.76
-25.44
-23.07
-22.50
-20.92
-16.29
-8.76
-0.16
6.35
8.12
3.59
-7.05
-21.84
-37.74
-50.96
-57.79
-55.30
-42.87
-22.63
0.73
21.76
36.53
43.76
45.41
44.63
45.36
50.47
61.16
76.83
95.64
115.39
133.90
149.38
160.23
165.25
163.72
155.73
142.41
125.66
107.85
90.96
76.26
63.99
53.73
44.71
36.17
27.72
19.33
11.35
4.29
-1.36
-5.23
-7.12
-7.20
-6.00
-4.33
-3.16
-3.23
-4.67
-6.89
-8.69
-8.62
-5.84
-0.45
6.34
12.52
16.20
16.59
14.28
11.15
9.59
10.87
14.65
18.79
20.52
16.68
5.50
-13.42
-39.30
-70.31
-103.58
-134.42
-156.14
-163.50
-155.51
-137.03
-117.82
-108.60
-114.30
-132.85
-155.72
-172.03
-173.91
-159.65
-132.18
-98.93
-65.92
-35.49
-7.39
19.10
43.34
62.97
75.48
79.80
77.01
70.27
63.52
59.43
58.83
60.69
62.87
63.30
60.94
55.97
49.83
44.38
40.86
39.61
40.22
41.55
42.60
42.73
41.82
40.17
38.29
36.52
35.09
34.18
34.03
34.85
36.59
38.86
41.00
42.29
42.12
40.37
37.43
33.98
30.69
27.55
24.03
18.91
10.64
-2.41
-21.42
-46.73
-76.50
-106.18
-129.81
-141.35
-136.82
-116.25
-84.01
-47.97
-17.42
0.47
2.26
-11.00
-33.81
-58.09
-75.62
-80.77
-71.32
-50.16
-22.52
6.08
31.31
50.57
62.45
66.17
62.18
53.04
43.30
38.74
43.35
56.97
75.11
90.49
96.15
89.30
71.79
48.56
25.34
6.08
-7.94
-17.43
-23.64
-27.49
-29.31
-29.48
-28.72
-27.88
-27.70
-28.58
-30.20
-31.93
-33.19
-33.64
-33.59
-33.73
-34.65
-36.58
-39.18
-41.71
-43.53
-44.44
-44.82
-45.54
-47.44
-50.84
-55.32
-59.83
-63.22
-64.94
-65.26
-65.08
-65.41
-66.76
-68.60
-69.41
-67.25
-59.98
-46.01
-24.47
4.31
38.14
72.58
101.47
118.05
118.76
104.75
81.76
57.86
39.89
30.69
28.63
29.65
29.84
27.99
25.35
24.14
25.50
28.46
30.52
29.20
23.65
15.03
6.22
0.30
-1.09
1.82
6.96
11.44
12.99
10.73
5.15
-2.32
-10.15
-16.46
-18.78
-14.24
-0.57
22.57
52.46
83.77
110.67
128.28
134.86
131.65
121.33
106.06
86.60
62.91
35.13
6.32
-19.59
-38.85
-49.80
-53.80
-54.45
-56.16
-62.08
-72.20
-83.71
-92.27
-93.36
-84.25
-65.13
-39.48
-13.78
4.49
9.50
-0.76
-23.84
-53.20
-79.94
-95.25
-92.93
-71.85
-36.54
3.76
37.96
56.92
56.81
40.49
15.52
-7.92
-22.66
-26.69
-22.45
-14.03
-4.33
5.74
16.25
26.81
35.71
40.55
40.11
35.25
28.78
24.02
23.13
26.03
30.85
34.82
35.84
33.69
29.93
26.78
26.23
28.78
33.38
38.02
40.49
38.77
31.72
19.63
4.70
-8.61
-15.04
-11.28
1.58
17.32
26.76
22.30
1.97
-29.06
-60.53
-81.97
-87.35
-77.17
-56.31
-32.37
-10.41
7.95
23.56
37.50
49.60
58.22
61.66
58.71
49.51
35.72
19.28
1.35
-18.07
-39.66
-62.84
-85.37
-102.69
-109.49
-102.15
-81.17
-51.63
-21.24
2.85
16.86
21.22
19.39
15.38
11.91
9.62
7.85
6.12
4.65
4.22
5.30
7.62
10.18
11.85
11.76
9.94
7.20
4.72
3.55
4.04
5.84
8.03
9.57
9.77
8.59
6.60
4.66
3.51
3.49
4.38
5.64
6.60
6.82
6.26
5.19
4.08
3.30
3.04
3.19
3.53
3.75
3.67
3.27
2.66
2.03
1.51
1.19
1.02
0.92
0.80
0.57
0.23
-0.20
-0.67
-1.16
-1.63
-2.15
-2.78
-3.58
-4.65
-6.00
-7.57
-9.30
-11.11
-12.99
-14.95
-17.10
-19.54
-22.38
-25.61
-29.18
-32.92
-36.69
-40.44
-44.25
-48.30
-52.86
-58.16
-64.19
-70.75
-77.45
-83.93
-90.01
-95.80
-101.67
-108.12
-115.25
-122.60
-129.04
-133.02
-133.02
-127.96
-117.76
-102.88
-84.35
-63.25
-40.15
-14.99
12.69
43.12
75.71
108.77
139.62
165.41
183.80
193.77
195.73
191.03
181.53
169.37
156.96
146.24
138.00
131.01
121.95
106.50
81.59
47.51
8.31
-27.74
-52.48
-61.44
-55.52
-39.90
-21.08
-3.98
9.40
19.38
27.05
32.58
35.17
33.96
29.14
22.14
15.13
10.28
8.64
9.86
12.42
14.39
14.40
12.16
8.50
4.91
2.96
3.24
5.49
8.66
11.47
12.97
12.98
12.02
11.00
10.78
11.66
13.39
15.05
15.53
13.93
9.92
3.91
-3.22
-10.61
-17.61
-23.93
-29.67
-35.04
-39.99
-44.07
-46.27
-45.42
-40.72
-32.22
-20.92
-8.62
2.63
11.24
16.60
19.37
21.08
23.20
26.59
31.22
36.16
40.02
41.43
38.93
31.44
18.47
0.94
-18.25
-34.53
-43.04
-40.88
-28.36
-10.26
6.79
17.25
18.93
13.46
4.81
-3.05
-8.27
-11.26
-13.37
-15.46
-17.26
-17.70
-15.93
-12.11
-7.44
-3.55
-1.70
-2.18
-4.20
-6.31
-7.19
-6.16
-3.48
-0.11
2.76
4.27
4.20
3.07
1.81
1.23
1.77
3.28
5.19
6.83
7.68
7.65
6.99
6.16
5.58
5.46
5.74
6.15
6.39
6.24
5.65
4.70
3.57
2.38
1.21
0.02
-1.28
-2.77
-4.52
-6.53
-8.82
-11.35
-14.14
-17.19
-20.55
-24.25
-28.29
-32.69
-37.48
-42.70
-48.38
-54.53
-61.11
-67.99
-74.93
-81.62
-87.60
-92.41
-95.61
-96.65
-95.18
-90.92
-83.87
-74.68
-63.99
-52.82
-42.34
-33.93
-28.73
-27.64
-30.95
-38.15
-48.49
-60.77
-74.08
-87.13
-98.85
-108.30
-114.77
-117.68
-116.66
-111.71
-103.19
-92.09
-79.65
-67.52
-56.99
-48.91
-43.25
-39.15
-35.65
-31.75
-27.19
-22.23
-17.68
-14.12
-11.39
-8.49
-3.29
6.13
21.17
41.64
65.96
91.74
116.46
138.63
157.84
175.13
192.03
210.49
232.31
258.91
290.24
323.71
353.98
372.16
370.84
346.53
301.85
244.90
186.19
134.78
95.10
66.87
46.68
31.15
18.38
8.05
0.42
-5.11
-10.09
-16.45
-25.19
-35.91
-46.84
-55.71
-60.98
-62.43
-61.20
-59.16
-58.09
-58.89
-61.37
-64.31
-66.25
-66.18
-63.91
-60.14
-56.01
-52.62
-50.53
-49.65
-49.29
-48.67
-47.18
-44.70
-41.53
-38.23
-35.34
-33.12
-31.56
-30.23
-28.85
-27.21
-25.25
-23.10
-20.94
-18.96
-17.26
-15.85
-14.68
-13.67
-12.75
-11.88
-11.06
-10.29
-9.57
-8.91
-8.30
-7.73
-7.21
-6.75
-6.33
-5.95
-5.59
-5.27
-4.96
-4.68
-4.42
-4.18
-3.96
-3.77
-3.59
-3.42
-3.26
-3.12
-2.98
-2.85
-2.73
-2.62
-2.52
-2.42
-2.34
-2.25
-2.17
-2.09
-2.02
-1.95
-1.88
-1.83
-1.76
-1.71
-1.66
-1.60
-1.56
-1.51
-1.46
-1.42
-1.38
-1.34
-1.30
-1.27
-1.23
-1.20
-1.16
-1.13
-1.10
-1.07
-1.04
-1.01
-0.99
-0.96
-0.94
-0.91
-0.89
-0.87
-0.84
-0.82
-0.80
-0.78
-0.77
-0.75
-0.73
-0.71
-0.70
-0.68
-0.66
-0.65
-0.63
-0.62
-0.60
-0.60
-0.59
-0.59
-0.58
-0.58
-0.58
-0.57
-0.56
-0.53
-0.50
-0.45
-0.39
-0.32
-0.25
-0.17
-0.07
0.05
0.19
0.34
0.44
0.48
0.43
0.32
0.20
0.17
0.27
0.53
0.89
1.24
1.49
1.59
1.55
1.48
1.53
1.77
2.25
2.87
3.47
3.90
4.07
4.05
4.04
4.30
5.02
6.22
7.68
8.98
9.77
9.86
9.45
9.06
9.36
10.82
13.50
16.82
19.83
21.64
21.80
20.73
19.59
19.81
22.46
27.77
34.75
41.63
46.68
48.92
48.62
47.10
45.96
45.94
46.57
46.09
42.20
33.40
19.36
1.14
-19.38
-40.38
-59.47
-73.25
-77.58
-69.05
-47.46
-17.59
11.36
29.58
30.22
13.13
-15.37
-45.71
-69.66
-83.53
-88.52
-88.48
-86.66
-84.42
-81.25
-76.53
-71.09
-67.37
-68.23
-75.10
-86.10
-96.19
-98.92
-88.95
-65.14
-31.50
4.16
33.38
50.60
55.23
51.10
43.87
38.13
35.47
34.76
33.76
30.99
26.64
22.18
19.15
18.11
18.51
19.08
18.37
15.77
11.53
6.62
2.33
-0.46
-1.44
-0.96
0.48
2.61
5.49
9.50
15.16
22.62
31.38
40.37
48.22
53.46
55.26
53.42
48.41
41.13
32.58
23.74
15.25
7.58
0.92
-4.56
-8.84
-11.92
-13.96
-15.17
-15.84
-16.20
-16.45
-16.81
-17.37
-18.12
-18.97
-19.92
-20.95
-22.07
-23.29
-24.63
-26.10
-27.67
-29.27
-30.87
-32.53
-34.21
-35.96
-37.82
-39.89
-42.24
-44.89
-47.81
-51.04
-54.71
-58.70
-62.87
-66.99
-70.63
-73.22
-74.05
-72.08
-66.44
-56.67
-42.56
-24.33
-2.74
21.13
45.82
69.59
91.17
110.16
125.22
135.22
139.24
136.48
126.60
109.84
87.40
61.15
33.28
5.87
-19.23
-40.61
-57.40
-68.97
-74.78
-74.11
-66.23
-50.95
-29.03
-2.81
24.79
50.53
71.88
87.41
97.25
102.64
105.27
106.74
108.29
110.98
115.17
119.97
122.72
119.46
106.34
81.83
48.12
10.86
-22.68
-46.79
-59.38
-62.31
-59.46
-54.55
-49.44
-44.21
-38.42
-32.30
-27.02
-23.96
-23.51
-24.58
-25.13
-23.30
-18.36
-11.50
-5.29
-2.45
-4.78
-12.24
-22.98
-34.31
-43.74
-49.97
-53.29
-55.09
-57.23
-61.27
-67.97
-76.77
-85.56
-90.71
-88.07
-74.53
-49.71
-16.85
17.99
48.13
68.79
78.83
80.61
78.37
76.07
75.81
77.44
79.29
79.26
75.73
67.95
56.13
41.35
25.37
10.05
-3.34
-14.34
-22.94
-28.92
-31.49
-29.46
-22.17
-10.45
3.23
15.48
23.49
26.04
23.71
18.17
11.36
4.86
-0.04
-2.28
-0.98
4.24
13.06
24.72
38.43
53.90
71.39
91.15
112.90
135.45
156.39
172.67
181.58
181.20
170.53
149.67
120.05
84.64
47.51
12.87
-16.41
-39.62
-58.22
-74.74
-91.56
-110.19
-131.41
-155.38
-181.38
-207.37
-229.65
-243.72
-245.70
-233.62
-208.15
-172.33
-130.62
-88.11
-50.34
-22.53
-8.54
-9.11
-21.00
-38.17
-54.52
-66.41
-73.53
-77.62
-80.29
-82.04
-82.99
-84.64
-90.64
-104.82
-126.84
-149.51
-161.22
-152.01
-120.23
-73.89
-26.61
9.73
30.15
37.51
38.22
35.93
29.26
14.25
-9.07
-33.19
-46.10
-38.64
-10.53
28.57
62.94
78.41
68.25
36.18
-4.21
-34.30
-43.71
-35.91
-21.74
-13.04
-11.74
-15.88
-21.04
-23.30
-19.63
-8.97
7.96
29.54
52.68
74.16
91.32
104.77
114.25
119.36
116.77
102.08
74.75
39.33
5.52
-15.31
-12.85
12.16
51.15
88.58
109.50
108.62
90.69
67.39
50.96
51.41
67.16
92.69
119.51
141.04
157.72
173.32
190.87
195.49
200.85
197.71
180.82
148.42
91.62
17.74
-53.85
-105.18
-132.18
-141.68
-147.29
-154.14
-159.31
-155.57
-134.78
-95.12
-42.64
12.50
54.81
69.50
54.04
17.34
-26.30
-63.72
-89.43
-105.31
-116.18
-124.74
-131.81
-133.73
-127.30
-112.10
-89.61
-63.29
-36.53
-10.52
13.88
38.03
65.26
98.24
137.60
182.05
228.43
272.46
309.68
334.83
344.27
337.13
314.63
279.17
233.34
180.08
122.88
66.17
12.71
-34.69
-73.34
-99.91
-110.15
-104.07
-86.82
-68.98
-53.62
-42.65
-37.18
-35.91
-38.05
-43.12
-51.14
-61.60
-72.77
-81.48
-87.49
-91.90
-96.22
-102.30
-112.44
-129.51
-155.76
-191.72
-224.09
-242.68
-244.73
-235.17
-221.27
-207.99
-197.41
-189.88
-184.94
-181.52
-179.76
-178.92
-175.30
-163.23
-138.23
-100.06
-53.31
-5.54
34.93
65.12
83.98
93.34
96.86
97.99
98.79
100.33
103.45
109.06
117.36
127.06
136.28
143.50
148.13
150.86
154.32
163.01
179.90
208.35
249.07
299.18
351.80
397.24
425.98
432.36
416.81
385.40
347.39
310.53
278.64
251.10
224.58
195.80
163.73
129.58
95.33
62.38
30.11
-3.30
-39.35
-78.06
-117.42
-153.69
-183.25
-203.76
-215.05
-219.48
-221.08
-224.29
-233.31
-251.39
-280.42
-320.26
-368.13
-418.35
-463.40
-495.93
-511.11
-508.38
-491.28
-465.54
-436.52
-407.38
-378.97
-351.13
-324.26
-299.75
-279.11
-262.43
-247.22
-228.53
-200.24
-156.93
-95.62
-17.23
72.79
165.19
248.87
313.94
354.60
370.96
368.33
354.43
335.71
314.67
289.14
253.86
203.44
135.46
52.66
-37.04
-122.53
-193.08
-241.67
-267.25
-274.24
-270.16
-262.11
-253.96
-245.72
-234.78
-218.12
-193.68
-161.08
-121.63
-78.20
-36.11
-3.16
11.14
-1.60
-44.92
-115.02
-200.48
-285.34
-353.90
-395.68
-407.95
-395.28
-366.66
-331.64
-297.60
-268.81
-246.98
-232.33
-224.60
-222.89
-225.56
-229.84
-232.31
-229.94
-221.00
-205.37
-183.97
-158.19
-128.81
-95.80
-58.79
-17.60
26.93
73.24
117.66
157.08
189.18
213.27
230.71
243.87
254.99
265.40
275.81
284.86
291.46
294.60
293.68
289.01
280.97
269.54
254.34
236.43
214.70
190.73
167.03
146.52
132.85
127.75
130.21
136.88
147.51
154.80
157.93
158.24
158.44
164.55
179.89
203.30
229.93
262.27
288.44
309.13
327.67
348.61
382.94
437.45
511.71
597.83
696.27
779.84
837.20
860.87
850.17
823.81
803.26
804.13
830.17
891.23
956.93
1015.12
1057.46
1081.92
1106.70
1147.89
1211.25
1184.53
1187.67
1188.99
1181.67
1162.19
1038.98
772.38
385.02
-46.07
-439.33
-731.89
-934.71
-1062.94
-1137.86
-1177.24
-1178.38
-1139.40
-1066.63
-976.99
-877.18
-794.60
-733.93
-692.79
-665.52
-635.16
-591.19
-533.24
-471.44
-410.54
-367.67
-343.63
-334.23
-333.19
-327.39
-311.11
-282.06
-244.47
-200.85
-159.84
-123.14
-90.28
-59.76
-26.73
11.51
54.48
97.35
134.87
164.92
185.42
194.93
193.10
182.02
164.22
142.36
117.99
92.42
67.21
43.29
20.81
-0.16
-19.34
-36.26
-50.47
-62.33
-72.77
-82.93
-94.57
-111.47
-136.05
-167.98
-204.13
-240.07
-272.07
-297.62
-315.45
-325.65
-334.06
-345.37
-360.21
-374.95
-384.67
-386.32
-379.62
-366.42
-350.02
-342.02
-351.03
-378.02
-416.00
-455.21
-488.57
-513.10
-529.27
-539.51
-557.27
-592.63
-647.00
-713.35
-782.84
-850.09
-913.00
-969.74
-949.65
-813.19
-570.89
-279.83
-3.48
219.65
379.20
482.71
545.41
583.26
596.79
582.88
542.25
483.43
419.59
363.46
324.05
305.29
305.00
310.70
310.12
298.26
279.46
262.62
255.32
260.74
277.50
302.81
327.47
343.66
348.79
345.75
339.42
333.20
328.13
312.61
282.21
235.34
175.00
107.73
41.51
-17.14
-64.85
-101.26
-128.03
-146.47
-158.18
-163.66
-162.42
-153.18
-134.88
-107.42
-71.77
-29.41
16.61
61.94
102.44
135.27
159.34
174.85
182.52
183.07
177.02
165.88
151.67
136.70
123.12
112.54
105.53
101.53
99.01
96.01
91.42
85.17
78.22
71.89
67.42
65.61
66.83
71.01
77.37
83.94
87.35
83.47
68.98
43.38
9.96
-24.96
-54.52
-74.08
-82.99
-84.01
-81.31
-78.16
-75.77
-73.43
-69.96
-64.92
-58.98
-53.24
-48.41
-44.20
-39.61
-33.66
-26.13
-17.53
-9.33
-3.08
0.31
0.96
-0.14
-1.49
-1.80
-0.37
2.66
6.31
9.40
11.09
11.04
9.44
6.84
3.67
0.31
-3.01
-6.37
-9.52
-11.74
-12.16
-10.10
-5.29
1.52
9.39
17.09
22.82
25.63
25.68
23.82
20.85
17.19
12.38
6.46
-0.15
-7.65
-14.73
-18.65
-16.65
-7.55
7.52
24.98
41.18
52.83
56.08
50.24
37.69
21.59
2.99
-15.09
-33.63
-54.09
-78.10
-109.20
-147.95
-191.22
-233.52
-268.89
-292.70
-302.75
-299.45
-268.15
-210.05
-140.24
-77.55
-30.96
3.40
34.90
64.73
94.54
119.79
130.76
121.80
93.82
52.33
7.58
-32.09
-53.62
-47.86
-15.04
33.92
87.00
137.14
182.10
222.57
258.65
289.19
312.02
325.63
328.20
321.14
307.91
290.50
269.98
246.20
218.85
186.83
148.05
99.51
44.10
-14.14
-73.94
-133.57
-190.44
-240.67
-281.21
-310.90
-330.26
-340.03
-341.43
-339.85
-339.64
-342.66
-348.47
-356.76
-369.14
-388.51
-417.46
-430.64
-414.01
-370.13
-315.47
-265.57
-225.69
-191.62
-155.18
-109.65
-53.78
3.87
52.33
83.85
97.40
97.65
91.54
85.08
81.38
79.53
75.84
67.87
56.71
46.43
40.93
41.43
46.17
51.85
55.20
53.36
46.23
36.86
30.16
30.25
38.68
54.44
75.60
97.57
117.47
134.73
151.08
169.53
192.77
221.96
256.54
294.12
330.42
360.09
377.57
379.06
364.10
335.70
299.06
259.23
219.01
178.13
134.69
86.66
33.95
-20.74
-72.67
-116.84
-149.64
-169.91
-178.83
-178.58
-171.57
-159.96
-145.24
-128.36
-109.80
-89.74
-68.77
-47.83
-27.86
-9.43
7.36
22.98
38.05
52.91
67.12
78.42
83.44
79.98
69.08
55.10
44.01
40.34
44.94
55.10
64.88
67.77
59.48
39.09
8.90
-26.42
-59.97
-82.97
-86.25
-65.80
-25.51
23.41
66.53
91.93
94.89
79.43
52.96
29.09
19.44
26.99
45.34
65.58
82.41
96.12
108.51
119.48
127.40
127.20
114.21
86.54
45.92
-1.85
-50.12
-93.44
-128.11
-151.90
-167.08
-177.36
-186.28
-196.01
-207.59
-222.61
-243.70
-274.39
-304.63
-327.43
-338.51
-336.00
-318.15
-282.79
-230.61
-167.18
-102.01
-44.68
-3.60
18.48
24.50
20.57
12.68
3.89
-5.05
-13.97
-21.59
-27.63
-31.65
-33.31
-33.82
-32.73
-30.04
-25.35
-17.67
-5.40
11.59
32.65
56.05
79.18
99.04
112.51
117.36
112.80
99.66
79.05
52.76
22.78
-9.01
-40.75
-71.03
-98.43
-122.69
-142.43
-156.93
-165.63
-168.94
-168.15
-165.19
-162.29
-161.26
-162.94
-166.91
-172.08
-175.49
-174.20
-166.36
-151.95
-132.59
-110.56
-87.86
-65.60
-44.25
-20.96
7.15
41.18
79.28
117.19
150.38
175.70
192.26
200.98
208.59
221.86
244.63
275.73
310.12
342.28
368.84
389.49
406.34
428.70
465.55
522.11
597.72
687.08
783.24
879.10
967.18
1002.75
951.49
803.05
581.68
334.24
105.58
-77.91
-210.11
-298.76
-357.20
-392.00
-405.61
-399.35
-377.42
-347.44
-317.96
-295.48
-283.10
-280.77
-281.72
-277.97
-264.04
-239.57
-208.87
-177.76
-151.29
-132.57
-122.17
-117.50
-115.36
-114.20
-115.18
-120.57
-131.04
-143.91
-153.41
-154.11
-143.08
-121.99
-96.50
-73.58
-58.24
-51.55
-51.07
-52.99
-54.77
-55.46
-55.17
-54.35
-53.05
-50.89
-47.66
-43.59
-39.23
-35.55
-33.49
-33.26
-34.58
-36.90
-39.65
-42.65
-45.89
-49.27
-52.86
-56.53
-59.98
-62.82
-64.91
-65.20
-62.69
-56.21
-44.67
-27.59
-5.11
22.25
53.45
86.96
120.27
149.14
168.06
171.97
158.61
130.34
93.96
58.23
30.70
14.81
9.39
10.38
13.61
16.83
19.98
24.12
29.48
35.36
40.00
42.10
41.23
38.19
34.33
30.87
27.99
24.95
20.68
13.97
4.36
-7.66
-20.67
-32.70
-41.82
-46.75
-47.06
-43.02
-35.83
-26.93
-17.77
-9.63
-3.42
0.29
1.24
-0.93
-6.58
-16.29
-30.33
-48.35
-69.30
-90.94
-110.26
-123.97
-129.50
-125.48
-112.32
-91.76
-66.38
-39.29
-13.49
8.18
23.59
32.03
34.99
36.05
39.67
49.04
64.10
80.84
93.10
95.81
87.45
70.66
50.57
32.01
17.71
7.61
0.29
-5.57
-10.15
-12.68
-12.49
-9.85
-6.11
-3.00
-2.11
-3.73
-7.08
-10.69
-13.07
-13.45
-12.01
-9.73
-7.86
-7.41
-8.67
-11.17
-13.96
-16.13
-17.18
-17.15
-16.61
-16.24
-16.68
-18.15
-20.46
-23.10
-25.62
-27.73
-29.40
-31.06
-32.96
-35.49
-38.88
-43.19
-48.17
-53.52
-58.84
-63.63
-67.36
-69.53
-69.88
-68.31
-65.08
-60.19
-53.95
-46.68
-38.69
-30.32
-21.93
-14.09
-7.35
-2.00
1.91
4.71
7.09
9.90
13.66
18.36
23.32
27.44
29.92
30.47
29.73
29.30
31.18
36.96
47.30
61.56
77.12
92.24
105.45
116.13
124.47
131.12
136.69
141.79
147.01
152.64
158.12
161.00
157.29
142.76
115.17
76.22
31.75
-10.15
-42.39
-61.45
-68.47
-67.67
-63.74
-59.64
-55.96
-51.98
-47.11
-41.94
-37.81
-35.90
-36.35
-38.07
-39.42
-38.87
-35.89
-31.11
-25.90
-21.68
-19.34
-18.90
-19.60
-20.24
-19.82
-17.85
-14.58
-10.73
-7.16
-4.55
-3.18
-2.88
-3.12
-3.26
-2.74
-1.22
1.32
4.57
7.90
10.61
12.04
12.03
11.02
9.95
10.04
12.19
16.69
22.91
29.61
35.31
39.18
41.41
43.15
45.84
50.21
55.73
60.37
61.42
56.47
44.40
25.61
1.75
-24.47
-49.72
-70.05
-81.55
-81.32
-68.68
-46.23
-19.08
6.62
26.60
39.17
46.03
50.55
55.65
61.64
65.57
62.54
48.42
22.66
-10.87
-44.91
-72.12
-88.24
-93.93
-94.02
-94.27
-98.14
-105.06
-111.83
-114.08
-109.88
-100.41
-88.85
-77.98
-68.53
-59.27
-48.22
-34.13
-17.65
-1.24
12.05
19.76
21.12
17.27
10.34
2.60
-4.51
-10.65
-16.61
-23.45
-31.99
-41.87
-51.83
-60.09
-64.93
-65.20
-60.47
-51.21
-37.31
-20.70
-2.73
15.56
33.35
49.90
64.54
76.79
86.31
93.34
97.99
100.70
101.65
100.71
97.42
91.23
82.09
69.68
54.64
38.02
21.34
5.96
-6.94
-16.54
-22.18
-23.11
-19.25
-10.79
1.38
15.55
29.25
39.67
44.28
41.50
31.46
16.05
-1.44
-17.49
-29.13
-34.85
-34.54
-29.17
-20.55
-11.12
-3.62
-0.34
-2.19
-7.81
-13.71
-15.54
-10.34
2.13
17.57
29.77
33.63
27.50
13.74
-2.93
-17.99
-29.14
-36.59
-41.99
-46.82
-51.31
-54.78
-56.54
-56.54
-55.50
-54.65
-55.20
-57.73
-62.25
-68.19
-74.68
-80.87
-85.91
-89.04
-89.70
-87.82
-82.69
-73.94
-61.27
-44.32
-22.93
2.76
31.95
62.62
92.31
119.08
141.90
160.79
176.02
186.74
190.50
183.95
164.72
133.80
96.09
59.04
29.83
12.56
6.59
7.82
11.42
14.76
17.17
19.17
19.87
15.86
2.80
-21.57
-54.48
-87.74
-110.81
-115.72
-101.14
-73.12
-42.05
-17.65
-4.96
-3.30
-8.45
-15.41
-21.78
-28.09
-36.29
-47.74
-62.36
-78.33
-93.26
-104.87
-111.19
-110.90
-103.39
-88.85
-68.17
-42.94
-15.18
12.84
39.00
62.14
81.85
98.47
112.69
125.72
138.41
150.40
159.25
160.85
150.71
126.08
89.60
46.77
7.25
-19.32
-27.51
-18.80
-0.61
17.15
25.55
21.08
5.21
-17.36
-41.90
-65.56
-87.63
-108.27
-126.84
-141.67
-150.42
-151.37
-144.37
-131.08
-114.10
-95.75
-77.27
-58.42
-38.33
-16.50
6.64
29.58
50.04
65.82
75.61
79.41
78.70
75.50
71.83
68.90
67.08
65.89
64.65
63.25
61.32
59.38
57.98
57.59
58.21
59.59
61.24
62.75
64.25
65.25
65.70
65.35
63.82
60.57
55.39
48.46
40.52
32.67
25.83
20.68
17.22
14.89
12.90
10.73
8.39
6.48
5.78
6.84
9.92
14.96
21.67
29.43
36.98
42.17
42.32
35.04
19.42
-2.96
-28.09
-50.81
-66.99
-74.96
-75.72
-71.54
-64.31
-54.49
-41.61
-25.25
-6.38
12.41
28.00
38.26
43.24
45.09
46.82
50.33
55.83
61.93
66.49
68.07
66.64
63.62
61.12
60.99
63.74
68.87
75.33
81.93
87.88
92.76
96.17
97.20
97.22
96.00
93.13
88.55
82.61
76.21
70.43
66.30
64.47
65.06
67.30
70.13
72.43
73.21
71.87
68.23
62.57
55.49
47.84
40.17
33.01
26.67
21.22
16.48
12.16
7.99
3.74
-0.62
-5.19
-9.82
-14.08
-17.32
-18.85
-18.22
-15.37
-10.86
-5.55
-0.44
3.89
7.44
10.69
14.24
18.31
22.77
27.05
30.56
32.84
33.62
32.51
28.95
22.42
13.15
2.59
-6.91
-13.02
-14.79
-13.35
-11.68
-13.25
-20.60
-34.38
-53.52
-76.03
-99.76
-122.49
-141.69
-154.10
-156.40
-146.57
-125.30
-96.52
-66.50
-41.69
-26.58
-22.64
-28.23
-39.99
-54.39
-68.64
-80.78
-89.39
-93.17
-91.18
-83.13
-69.89
-53.53
-36.85
-22.69
-13.37
-10.34
-14.15
-24.69
-41.22
-62.50
-86.87
-112.31
-136.59
-157.54
-173.33
-182.86
-186.19
-184.57
-180.26
-175.88
-173.61
-174.48
-178.25
-183.54
-188.43
-191.10
-190.32
-185.90
-178.70
-170.50
-163.41
-159.28
-159.07
-162.66
-169.37
-178.40
-189.24
-201.48
-214.39
-226.45
-235.53
-239.56
-237.25
-228.75
-215.26
-198.33
-179.05
-157.77
-134.45
-109.16
-82.37
-54.65
-26.15
3.54
34.97
67.95
100.96
131.41
156.62
175.16
187.67
196.75
205.77
217.23
231.32
245.99
258.00
264.74
265.65
262.48
258.13
254.81
252.52
248.67
239.22
220.87
192.95
158.29
122.26
91.04
69.86
61.93
68.18
87.72
118.39
157.23
200.93
245.97
288.54
324.65
350.35
362.33
358.78
340.24
309.60
271.59
231.23
192.46
157.09
124.78
93.97
62.90
30.51
-3.60
-39.43
-76.97
-116.55
-158.49
-202.69
-248.18
-293.16
-335.42
-372.95
-404.30
-428.65
-445.48
-454.10
-453.53
-442.55
-420.10
-385.72
-340.02
-285.05
-224.47
-163.13
-106.17
-57.67
-19.70
7.82
26.43
37.79
42.93
42.41
37.11
29.03
21.25
16.88
17.66
23.21
31.40
39.66
46.45
51.86
57.28
64.21
73.33
83.95
94.19
101.71
104.53
101.76
93.90
82.55
69.84
57.65
46.90
37.58
29.06
20.93
13.43
7.53
4.28
4.07
6.27
9.36
11.73
12.56
12.16
11.59
11.77
12.60
12.76
10.48
4.57
-4.69
-15.61
-25.78
-33.42
-38.00
-40.25
-41.53
-42.83
-44.38
-45.81
-46.79
-47.49
-48.53
-50.51
-53.50
-56.84
-59.51
-60.74
-60.52
-59.48
-58.51
-58.06
-57.85
-57.02
-54.83
-51.12
-46.61
-42.44
-39.57
-38.23
-37.80
-37.06
-34.65
-29.52
-21.12
-9.41
5.11
21.61
38.90
55.66
70.64
82.87
91.93
97.86
101.16
102.48
102.43
101.40
99.62
97.15
93.98
90.18
85.85
81.20
76.48
71.94
67.74
63.90
60.29
56.71
52.94
48.88
44.58
40.26
36.20
32.70
30.02
28.37
27.84
28.41
29.88
31.88
34.08
36.22
38.36
40.75
43.74
47.60
52.43
58.03
64.10
70.40
76.86
83.67
91.23
99.88
109.64
120.09
130.30
139.32
146.49
151.82
155.95
159.61
163.10
165.75
165.97
161.77
151.43
134.31
111.03
83.42
53.96
25.29
-0.40
-21.77
-38.62
-51.74
-62.82
-73.81
-86.26
-100.77
-116.65
-132.17
-145.32
-155.01
-161.76
-167.88
-176.48
-189.82
-207.91
-227.97
-245.24
-254.89
-253.91
-242.23
-222.38
-198.11
-172.79
-148.38
-125.46
-103.86
-83.50
-64.57
-47.51
-32.31
-18.12
-3.30
14.06
35.46
61.21
90.02
119.06
144.28
161.29
166.31
157.22
134.27
100.23
59.79
18.27
-19.62
-50.94
-74.43
-89.99
-97.77
-97.76
-90.04
-75.33
-55.48
-33.17
-11.28
8.02
23.64
35.18
42.48
45.15
42.81
35.49
24.07
10.13
-4.65
-19.23
-33.47
-47.81
-62.59
-77.22
-90.03
-98.48
-100.05
-93.22
-78.11
-56.71
-32.28
-8.44
11.86
26.92
36.26
40.21
39.31
34.13
25.33
13.94
1.36
-10.70
-20.47
-26.18
-26.31
-19.81
-6.45
12.58
34.57
55.63
71.55
78.95
76.09
63.18
41.84
14.46
-16.49
-48.61
-79.65
-107.32
-129.37
-143.73
-148.90
-144.15
-129.44
-105.46
-73.68
-36.51
2.69
39.88
71.20
93.85
106.72
110.50
106.91
97.78
84.56
68.71
52.68
40.51
37.28
46.99
70.22
102.52
135.15
158.03
163.84
151.08
124.41
92.30
62.78
40.18
24.43
13.18
5.03
1.50
6.28
22.27
48.27
78.00
102.18
112.65
106.23
86.06
59.64
35.09
17.68
8.29
4.27
1.72
-2.32
-8.79
-16.66
-24.15
-29.86
-33.54
-36.04
-38.69
-42.50
-47.50
-52.72
-56.66
-58.19
-57.29
-55.18
-53.87
-55.17
-59.81
-67.04
-75.07
-81.82
-85.91
-87.03
-85.78
-82.97
-78.78
-72.59
-63.23
-49.87
-32.73
-13.44
5.35
20.97
31.55
36.73
37.38
35.17
31.79
28.50
26.00
24.52
24.07
24.51
25.75
27.71
30.40
33.93
38.44
43.90
50.04
56.26
61.73
65.68
67.67
67.67
65.94
62.85
58.62
53.40
47.39
41.03
35.09
30.43
27.79
27.43
29.17
32.37
36.25
40.13
43.36
45.36
45.44
42.96
37.54
29.38
19.32
8.71
-1.11
-9.38
-16.12
-22.02
-27.94
-34.29
-40.82
-46.74
-51.16
-53.72
-54.77
-55.22
-56.09
-57.90
-60.47
-62.86
-63.91
-62.62
-58.66
-52.41
-44.67
-36.40
-28.28
-20.69
-13.80
-7.82
-3.16
-0.28
0.48
-0.81
-3.63
-7.16
-10.55
-13.24
-15.16
-16.67
-18.30
-20.55
-23.55
-27.07
-30.46
-32.92
-33.74
-32.55
-29.47
-25.12
-20.42
-16.33
-13.62
-12.65
-13.44
-15.76
-19.16
-22.98
-26.21
-27.56
-25.81
-20.36
-11.84
-2.02
6.73
12.57
15.01
15.07
14.58
15.05
17.01
19.73
21.93
22.53
21.15
17.89
12.88
5.89
-3.32
-14.45
-26.16
-35.91
-40.59
-37.64
-26.30
-8.24
12.51
30.70
41.70
43.10
35.90
24.33
14.34
11.20
17.27
31.04
47.87
62.52
71.76
75.97
78.46
83.25
92.59
105.62
118.86
128.04
129.79
122.44
105.61
79.59
45.50
6.18
-32.92
-64.10
-79.18
-72.47
-43.39
2.68
55.83
104.71
140.24
157.98
158.93
148.04
131.73
115.11
100.36
86.75
71.96
54.21
33.44
11.34
-9.94
-29.16
-46.62
-63.40
-80.17
-96.17
-109.67
-119.28
-125.53
-131.27
-140.55
-156.30
-178.45
-203.36
-225.17
-238.17
-239.03
-227.87
-207.97
-184.43
-162.41
-145.84
-136.36
-133.11
-132.98
-131.61
-124.94
-111.02
-91.10
-69.29
-51.00
-40.61
-39.48
-45.27
-52.64
-55.22
-48.20
-30.17
-3.72
25.48
50.90
67.58
73.93
72.03
66.52
62.41
62.85
68.02
75.38
81.32
83.06
79.73
72.32
62.54
51.80
40.58
28.84
16.66
4.82
-5.29
-12.41
-16.03
-16.78
-15.82
-14.07
-11.62
-7.90
-2.37
4.82
12.54
19.17
23.32
24.48
23.07
20.16
16.93
14.30
12.98
13.40
15.96
20.85
27.92
36.49
45.43
53.50
59.60
63.02
63.31
60.32
54.09
45.03
34.12
22.84
12.87
5.54
1.49
0.51
1.83
4.43
7.37
10.01
12.10
13.94
16.13
19.25
23.16
26.60
27.28
22.68
11.45
-5.69
-25.78
-44.80
-59.30
-67.99
-72.18
-74.82
-78.95
-85.95
-94.93
-103.09
-107.26
-105.36
-97.46
-85.46
-72.09
-59.40
-47.90
-36.72
-24.50
-10.50
4.86
20.36
34.79
47.68
59.26
69.91
79.34
86.88
92.32
97.10
104.47
117.93
138.61
163.08
183.68
191.48
180.93
153.20
116.25
81.35
57.91
50.05
56.27
72.30
94.06
119.16
145.57
169.43
184.60
184.75
167.49
137.10
103.82
79.29
70.45
75.86
86.37
90.08
77.75
46.61
0.52
-52.72
-105.09
-151.16
-188.59
-217.14
-236.53
-246.49
-247.40
-240.82
-229.40
-216.58
-205.89
-199.75
-198.38
-198.04
-193.66
-181.39
-160.72
-134.54
-108.11
-86.94
-74.26
-69.52
-66.97
-60.32
-46.10
-25.01
0.18
26.91
54.12
82.28
112.61
148.29
190.30
235.94
279.17
313.58
334.43
339.55
329.45
292.80
229.77
154.86
89.29
45.38
22.44
12.89
9.50
8.22
8.98
14.09
23.07
32.14
35.03
27.12
7.69
-20.37
-52.97
-85.31
-112.04
-131.07
-137.28
-127.95
-103.88
-69.51
-29.83
11.26
49.96
88.33
124.93
156.17
177.29
185.06
175.96
150.21
108.40
56.87
5.87
-37.49
-70.13
-92.88
-107.74
-116.27
-118.73
-114.95
-105.05
-90.24
-74.73
-61.80
-53.21
-48.77
-47.02
-45.34
-40.82
-35.43
-27.66
-19.32
-11.31
-2.95
7.42
21.03
38.33
58.65
79.35
94.68
97.40
84.09
55.88
16.87
-28.45
-76.37
-124.78
-175.98
-227.18
-279.82
-333.87
-387.57
-439.15
-488.34
-535.05
-577.05
-587.09
-548.84
-465.40
-357.45
-251.03
-164.86
-106.19
-77.79
-66.35
-61.14
-58.94
-60.35
-65.16
-70.79
-70.63
-61.05
-40.79
-10.03
27.99
66.60
98.96
120.64
129.92
126.97
112.85
90.49
65.37
43.14
27.87
22.49
28.61
45.92
71.66
100.46
126.48
145.01
152.57
147.30
130.07
104.10
74.10
45.21
21.30
3.92
-8.90
-23.29
-47.28
-86.30
-139.05
-195.86
-241.30
-260.49
-245.67
-200.05
-136.85
-73.44
-24.34
3.79
12.80
10.00
3.48
-1.30
-2.40
-0.54
2.80
6.60
11.03
17.12
26.08
38.09
52.05
66.08
78.22
87.54
94.68
101.80
111.77
126.95
148.09
174.06
202.30
229.90
254.75
276.07
294.40
311.07
327.19
343.22
359.12
375.01
391.44
409.05
427.42
443.93
453.71
450.99
431.65
395.39
346.35
291.34
236.92
186.64
140.11
94.58
48.01
1.75
-39.03
-67.25
-77.23
-67.10
-39.33
0.59
46.27
91.99
133.02
164.82
182.60
181.82
159.58
116.14
55.53
-14.91
-86.19
-149.64
-198.64
-229.57
-242.31
-239.89
-227.44
-210.66
-193.90
-179.03
-165.37
-150.87
-133.96
-115.10
-97.23
-84.78
-81.62
-89.25
-105.94
-127.56
-149.37
-167.96
-182.28
-193.07
-201.46
-207.59
-210.27
-207.82
-199.37
-185.63
-168.87
-151.78
-136.28
-123.14
-112.26
-103.52
-97.05
-92.97
-90.58
-87.90
-81.90
-69.70
-49.85
-23.22
7.26
37.69
64.74
86.51
102.66
113.72
120.35
122.97
121.82
117.49
111.08
104.35
99.23
97.28
99.40
105.82
116.26
130.31
147.39
166.61
186.54
205.19
220.59
231.33
237.04
238.28
236.00
230.81
222.77
211.67
197.69
181.97
166.55
153.45
143.73
137.02
131.71
126.10
119.31
111.64
104.26
98.40
94.70
93.05
92.89
93.57
94.49
95.00
94.26
91.45
85.98
77.75
67.04
53.97
38.03
18.22
-6.23
-34.73
-64.52
-91.05
-109.30
-115.55
-108.89
-91.62
-68.47
-45.34
-27.93
-20.65
-26.06
-44.24
-72.44
-105.12
-134.90
-154.64
-159.83
-150.52
-131.35
-109.73
-92.83
-84.92
-86.43
-94.76
-106.12
-117.10
-125.17
-128.27
-124.52
-112.61
-92.95
-68.36
-43.49
-22.97
-9.29
-1.70
2.96
8.12
15.29
23.33
29.57
31.66
29.14
23.51
16.95
10.82
5.04
-1.33
-8.75
-16.45
-22.69
-26.11
-26.80
-26.52
-27.64
-31.58
-37.92
-44.63
-49.46
-51.18
-50.08
-47.33
-43.73
-39.02
-32.14
-22.21
-9.66
3.32
13.41
17.41
13.28
0.72
-18.93
-43.12
-68.63
-91.96
-109.92
-120.23
-122.01
-116.04
-104.41
-90.10
-75.87
-63.74
-54.84
-49.91
-49.41
-53.64
-61.89
-71.97
-80.85
-85.26
-83.38
-76.27
-68.27
-65.63
-73.68
-93.91
-122.95
-154.69
-182.02
-199.04
-202.29
-190.78
-165.38
-128.21
-82.27
-31.54
17.46
58.37
87.41
104.98
114.75
120.57
123.58
121.46
109.95
83.36
39.28
-19.88
-87.57
-156.28
-220.66
-278.50
-329.37
-358.60
-353.24
-308.05
-230.71
-137.87
-46.32
32.77
94.90
140.55
172.95
193.92
204.71
206.57
201.54
192.43
181.76
171.55
163.17
157.43
152.94
147.86
140.84
131.85
122.19
113.50
107.34
104.61
105.48
108.23
110.56
110.30
106.16
98.86
88.41
75.23
59.60
41.38
19.59
-6.73
-37.83
-72.76
-109.18
-144.11
-174.56
-198.49
-215.09
-225.40
-231.62
-236.25
-241.48
-249.24
-260.67
-275.14
-289.81
-299.53
-298.77
-283.63
-253.89
-213.52
-169.66
-129.68
-98.31
-76.17
-59.56
-47.49
-39.42
-35.09
-34.31
-36.84
-41.45
-45.99
-48.20
-45.19
-36.35
-25.64
-16.71
-10.89
-8.08
-6.39
-2.77
5.84
24.60
55.15
89.76
121.51
147.35
165.68
177.30
185.06
192.73
208.66
237.00
267.49
291.63
307.05
312.87
310.95
305.46
301.80
312.26
345.18
391.31
443.31
498.66
551.22
592.94
617.10
577.58
459.21
350.29
296.10
292.01
335.09
411.82
500.80
578.51
626.35
641.92
629.90
585.79
511.95
418.14
312.02
199.94
87.81
-18.39
-108.10
-174.62
-226.11
-269.86
-307.95
-341.90
-371.24
-393.75
-407.00
-406.69
-392.86
-376.32
-367.41
-371.75
-391.75
-425.43
-466.80
-508.23
-541.33
-561.36
-570.67
-573.24
-572.48
-571.58
-571.88
-571.84
-566.86
-549.74
-514.17
-458.46
-385.69
-303.34
-221.49
-149.35
-92.05
-49.68
-18.55
6.16
28.35
50.37
73.19
97.09
121.35
143.74
160.34
166.76
160.08
140.80
113.84
87.05
68.62
64.07
74.26
95.09
119.45
139.85
150.89
150.23
138.04
115.95
86.10
50.80
12.77
-24.49
-56.92
-80.89
-94.54
-98.86
-97.24
-93.95
-92.36
-93.88
-97.89
-102.36
-105.26
-105.83
-105.10
-104.93
-106.65
-109.48
-110.57
-105.50
-89.50
-59.42
-15.38
38.58
95.83
149.20
193.20
223.95
239.79
241.44
231.88
215.24
196.22
179.60
169.55
168.52
174.32
180.17
176.92
156.92
116.48
57.90
-11.27
-82.07
-139.00
-168.81
-169.24
-149.34
-121.09
-92.79
-67.31
-44.79
-25.15
-9.02
1.35
5.07
1.04
-9.28
-22.32
-33.10
-36.91
-30.29
-11.78
16.30
48.81
80.26
107.79
126.71
136.14
137.42
133.14
126.40
119.73
115.42
115.40
120.58
128.90
135.32
132.33
113.20
74.87
18.92
-49.45
-123.87
-198.40
-268.02
-326.89
-368.19
-384.62
-371.21
-327.97
-260.72
-179.26
-93.41
-9.97
68.25
140.31
204.92
259.05
298.94
322.06
328.45
320.64
301.97
274.93
240.42
198.64
150.30
97.63
44.09
-6.42
-50.22
-84.15
-105.51
-112.41
-104.72
-85.01
-58.64
-32.59
-13.29
-4.47
-6.34
-16.35
-30.81
-46.53
-61.80
-75.88
-88.33
-98.47
-105.33
-108.33
-107.88
-105.24
-102.23
-100.53
-100.94
-103.06
-105.64
-107.03
-106.14
-102.90
-98.26
-93.90
-91.56
-92.29
-96.11
-102.05
-108.46
-113.54
-115.82
-114.26
-108.48
-98.94
-86.84
-74.05
-62.52
-53.71
-47.84
-43.81
-39.57
-33.03
-23.05
-9.93
4.55
18.00
28.16
33.81
35.09
33.27
30.20
27.74
27.23
29.25
33.63
39.43
44.73
46.57
41.35
26.11
0.37
-32.39
-64.90
-88.16
-94.92
-82.69
-54.85
-19.15
15.75
43.56
62.07
72.53
77.64
79.46
78.77
75.51
69.66
61.98
53.76
46.21
40.07
35.76
33.73
34.88
40.21
50.11
63.64
78.27
90.50
97.11
96.14
87.48
72.53
53.51
32.83
12.63
-5.18
-19.06
-27.71
-30.51
-27.76
-20.63
-10.96
-0.70
8.60
16.03
21.25
24.25
24.91
22.86
17.72
9.46
-1.11
-12.19
-21.30
-26.14
-25.42
-19.46
-10.08
0.19
8.97
14.76
17.14
16.56
13.86
10.04
6.08
2.84
0.93
0.55
1.58
3.93
8.12
15.53
27.90
46.37
70.33
97.01
121.91
140.23
148.45
145.31
131.90
110.87
85.44
58.50
32.40
8.88
-10.71
-25.49
-35.15
-40.18
-41.71
-41.17
-39.96
-38.94
-38.29
-37.68
-36.58
-34.71
-32.25
-29.70
-27.71
-26.84
-27.30
-28.90
-31.04
-32.91
-33.66
-32.66
-29.69
-25.02
-19.39
-13.87
-9.54
-7.27
-7.40
-9.63
-13.06
-16.65
-19.65
-22.03
-24.60
-28.58
-34.83
-43.12
-51.80
-58.11
-59.00
-51.95
-35.52
-9.46
25.17
65.83
108.51
147.89
178.41
195.85
198.86
189.70
173.36
155.73
141.25
131.63
125.82
121.29
115.67
107.73
97.60
86.10
73.97
61.48
48.56
35.21
21.96
9.88
0.16
-6.41
-9.80
-10.80
-10.65
-10.55
-11.14
-12.47
-14.04
-15.28
-15.94
-16.20
-16.78
-18.57
-22.41
-28.74
-37.43
-47.68
-58.24
-67.58
-74.32
-77.72
-77.83
-75.49
-71.89
-68.14
-64.77
-61.81
-58.89
-55.68
-52.22
-48.77
-45.66
-42.97
-40.42
-37.44
-33.50
-28.29
-21.88
-14.63
-6.90
0.96
8.64
15.80
22.09
27.21
31.15
34.15
36.78
39.65
43.12
47.13
51.38
55.52
59.40
63.07
66.60
69.88
72.58
74.35
74.92
74.42
73.10
71.19
68.65
65.13
60.08
53.13
44.24
33.88
23.04
12.84
4.31
-1.90
-5.66
-7.34
-7.51
-6.81
-5.71
-4.43
-2.97
-1.17
1.25
4.61
9.08
14.69
21.04
27.34
32.61
35.88
36.67
35.11
31.99
28.51
25.82
24.51
24.45
24.88
24.64
22.81
18.95
13.23
6.33
-1.02
-8.23
-15.07
-21.40
-27.21
-32.28
-36.30
-39.00
-40.31
-40.51
-40.08
-39.59
-39.36
-39.43
-39.58
-39.55
-39.28
-38.98
-39.04
-39.84
-41.52
-43.84
-46.27
-48.17
-48.97
-48.41
-46.48
-43.40
-39.52
-35.17
-30.66
-26.32
-22.43
-19.30
-17.17
-16.11
-16.02
-16.67
-17.70
-18.72
-19.45
-19.58
-19.04
-17.89
-16.29
-14.53
-12.93
-11.73
-11.00
-10.53
-9.87
-8.50
-6.07
-2.70
1.02
4.08
5.41
4.33
0.85
-4.29
-9.82
-14.34
-16.68
-16.18
-12.77
-6.92
0.54
8.64
16.50
23.46
29.22
33.72
36.93
38.82
39.31
38.44
36.56
34.33
32.61
32.17
33.30
35.74
38.75
41.40
42.96
43.08
41.91
39.88
37.53
35.24
33.19
31.30
29.32
26.93
23.79
19.65
14.28
7.64
-0.07
-8.27
-16.05
-22.30
-26.19
-27.41
-26.44
-24.33
-22.33
-21.38
-21.81
-23.36
-25.43
-27.49
-29.31
-30.96
-32.62
-34.42
-36.38
-38.46
-40.73
-43.25
-45.98
-48.64
-50.66
-51.43
-50.47
-47.67
-43.43
-38.45
-33.46
-29.10
-25.61
-22.82
-20.28
-17.37
-13.53
-8.49
-2.44
3.95
9.80
14.43
17.76
20.34
23.07
26.73
31.48
36.75
41.39
44.10
43.82
40.13
33.11
23.36
11.67
-1.06
-13.86
-25.82
-36.14
-44.05
-49.07
-51.01
-49.98
-46.50
-41.36
-35.48
-29.76
-24.87
-21.11
-18.42
-16.47
-14.83
-13.32
-12.12
-11.84
-13.26
-16.85
-22.44
-29.13
-35.53
-40.23
-42.24
-41.25
-37.29
-30.59
-21.29
-9.50
4.32
19.24
33.79
46.26
55.30
60.28
61.39
59.56
55.93
51.42
46.54
41.35
35.71
29.55
23.04
16.53
10.53
5.46
1.62
-0.81
-1.74
-1.16
0.87
4.16
8.31
12.75
16.86
20.06
22.04
22.74
22.39
21.24
19.49
17.04
13.75
9.57
4.77
-0.04
-4.21
-7.42
-9.96
-12.70
-16.60
-22.16
-29.13
-36.51
-43.17
-48.23
-51.56
-53.53
-54.83
-55.94
-56.93
-57.60
-57.71
-57.30
-56.62
-56.19
-56.45
-57.53
-59.21
-61.13
-62.85
-64.11
-64.91
-65.38
-65.76
-66.40
-67.58
-69.64
-72.75
-76.75
-81.20
-85.60
-89.78
-94.00
-98.86
-104.66
-110.90
-115.90
-117.01
-111.41
-96.66
-71.55
-36.52
5.95
51.54
94.47
128.80
149.94
155.87
148.06
130.98
110.76
93.35
83.04
81.43
87.74
99.49
113.49
126.78
137.07
142.79
143.07
137.67
127.10
112.59
96.19
80.17
66.46
55.98
48.47
42.90
38.01
32.98
27.53
21.82
16.16
10.94
6.23
2.02
-1.91
-5.86
-9.90
-13.77
-16.90
-18.84
-19.69
-20.18
-21.24
-23.38
-26.20
-28.43
-28.67
-26.07
-20.71
-13.48
-5.35
2.92
10.87
18.02
23.54
26.32
25.62
21.61
15.43
8.81
3.12
-1.15
-4.25
-6.51
-8.11
-8.63
-7.55
-4.78
-0.93
2.68
4.62
3.84
0.10
-6.03
-13.38
-20.52
-26.22
-29.74
-31.18
-31.45
-31.98
-34.25
-39.00
-45.86
-53.40
-59.69
-63.06
-62.71
-58.93
-52.99
-47.00
-43.64
-45.67
-55.08
-71.74
-92.55
-111.47
-121.15
-115.44
-91.92
-53.06
-5.70
41.16
79.15
102.65
109.48
100.45
78.45
47.84
14.16
-16.24
-36.96
-43.14
-33.09
-9.22
22.41
54.08
78.98
93.38
97.23
93.12
84.53
74.20
63.58
52.95
41.89
29.52
14.85
-2.81
-23.04
-43.68
-60.88
-70.24
-68.76
-56.65
-37.93
-19.07
-6.57
-4.42
-12.91
-29.08
-48.44
-67.05
-82.66
-94.92
-104.55
-112.33
-118.40
-122.40
-124.04
-123.93
-123.70
-125.49
-130.89
-140.07
-151.36
-161.90
-168.80
-170.16
-165.60
-155.87
-142.18
-125.90
-108.64
-92.54
-80.15
-73.30
-71.80
-72.55
-70.22
-59.20
-36.24
-1.91
39.40
81.33
118.12
146.43
166.11
179.44
189.83
200.23
212.38
226.40
241.16
254.91
265.91
272.83
274.85
271.49
262.44
248.05
229.61
209.57
191.13
177.09
168.83
165.77
165.68
165.63
163.08
156.52
145.39
129.79
110.06
86.61
59.88
30.37
-1.33
-34.61
-68.74
-102.90
-136.02
-166.95
-194.62
-218.39
-238.30
-255.11
-269.82
-283.00
-294.21
-301.79
-303.41
-296.92
-281.36
-257.47
-227.41
-194.06
-160.14
-127.61
-97.49
-70.06
-45.05
-21.65
1.61
26.82
56.03
90.53
129.96
172.05
212.81
247.40
271.23
280.89
275.00
254.44
222.39
183.70
144.09
108.99
82.49
66.77
61.98
66.72
78.49
94.11
109.92
122.12
127.55
124.63
113.97
98.09
80.23
62.93
47.16
32.20
16.60
-0.49
-18.49
-35.32
-48.15
-54.53
-53.28
-44.66
-30.17
-11.92
8.05
27.87
45.86
60.41
69.90
73.10
69.66
60.52
47.61
33.08
18.16
2.68
-14.56
-34.56
-56.87
-79.27
-98.55
-111.99
-118.84
-120.79
-121.14
-123.35
-129.70
-140.61
-154.95
-170.78
-186.22
-199.73
-210.23
-216.83
-218.84
-215.94
-208.42
-197.07
-182.99
-167.05
-149.37
-129.37
-106.21
-79.79
-51.38
-23.70
0.22
18.41
30.97
39.88
47.65
55.68
63.43
68.87
70.11
67.18
62.53
60.41
64.81
77.68
97.96
122.24
146.03
165.33
177.63
182.10
179.32
170.77
158.12
142.82
125.98
108.39
90.87
74.54
60.69
50.30
43.39
38.43
32.24
20.91
1.24
-27.71
-63.63
-101.55
-135.34
-159.78
-172.00
-171.95
-161.41
-142.77
-117.92
-88.20
-54.97
-20.30
13.06
42.61
67.00
86.68
103.08
117.32
129.04
136.13
135.77
126.13
107.55
82.59
55.00
28.09
3.45
-19.33
-42.13
-66.88
-94.37
-123.64
-152.35
-177.72
-197.37
-209.61
-212.95
-205.70
-185.98
-152.67
-106.96
-53.54
-0.09
45.04
75.73
90.32
91.25
82.99
69.28
51.35
28.58
0.30
-32.27
-65.34
-93.59
-112.51
-120.39
-119.05
-112.76
-105.73
-99.88
-93.79
-83.52
-64.86
-35.96
0.99
40.22
74.41
97.74
108.08
107.16
99.07
88.08
76.98
66.80
57.64
49.58
43.29
39.69
39.40
42.27
47.33
53.39
59.56
65.52
71.23
76.80
82.25
87.64
93.13
98.64
103.07
103.94
97.77
81.24
53.11
15.43
-26.34
-64.59
-91.63
-101.65
-91.88
-62.64
-17.06
39.40
99.18
153.19
192.18
208.89
200.52
170.14
126.42
81.02
44.98
25.09
22.12
31.48
45.83
58.57
66.06
68.00
65.97
61.64
55.23
45.85
32.66
16.11
-1.47
-16.83
-27.20
-31.68
-31.58
-29.67
-28.69
-30.16
-33.84
-38.25
-41.66
-42.95
-41.98
-39.33
-35.70
-31.52
-26.83
-21.58
-15.79
-9.84
-4.30
0.17
3.11
4.31
3.78
1.71
-1.71
-6.20
-11.72
-18.51
-27.33
-39.33
-55.62
-76.80
-102.62
-131.89
-162.79
-193.53
-222.72
-249.62
-273.79
-294.65
-311.01
-321.22
-323.70
-317.66
-303.66
-283.32
-258.59
-230.92
-200.66
-167.30
-130.13
-89.13
-45.40
-1.00
41.45
79.24
109.59
130.12
139.57
138.72
130.95
121.53
115.98
117.90
127.55
142.08
157.26
169.41
176.86
179.90
179.66
176.92
171.64
163.48
152.59
140.26
128.43
118.84
112.31
108.39
105.64
102.44
97.71
91.30
84.01
76.96
70.98
66.23
62.02
57.25
50.98
42.91
33.75
24.90
17.93
13.85
12.71
13.43
14.34
13.85
11.09
6.12
-0.17
-6.61
-12.15
-15.98
-17.52
-16.22
-11.75
-4.30
4.98
14.06
20.60
22.86
20.60
15.27
9.61
6.58
8.37
15.67
27.63
42.21
56.66
68.18
74.44
74.00
66.66
53.43
36.13
16.70
-3.52
-24.10
-45.46
-68.26
-92.59
-117.40
-140.34
-157.90
-165.95
-160.79
-140.78
-107.66
-67.28
-28.50
-0.38
11.21
6.04
-10.44
-29.56
-43.42
-47.76
-42.91
-32.31
-20.07
-9.16
-1.04
3.79
5.14
2.87
-2.67
-10.30
-18.42
-25.43
-30.20
-32.34
-32.10
-30.30
-28.21
-27.50
-29.59
-35.02
-42.50
-49.06
-51.08
-46.09
-34.21
-18.43
-3.30
7.31
11.93
12.51
13.40
19.55
34.71
60.24
94.97
135.82
178.60
218.50
250.76
271.23
277.13
268.09
246.33
216.03
181.80
147.01
113.05
79.59
45.79
11.51
-22.02
-52.61
-77.95
-96.64
-108.59
-114.83
-116.90
-116.19
-113.56
-109.03
-102.17
-92.39
-79.43
-63.67
-46.23
-28.58
-12.05
2.50
14.97
25.64
35.02
43.65
52.03
60.61
69.68
79.24
88.78
97.47
104.34
108.69
110.43
110.00
108.09
105.17
101.25
95.73
87.78
76.51
61.31
42.11
19.20
-6.85
-35.24
-65.02
-95.06
-123.94
-150.10
-171.97
-188.14
-197.81
-200.79
-197.63
-189.54
-178.14
-165.15
-152.20
-140.60
-131.17
-124.50
-120.93
-120.59
-123.33
-128.50
-134.83
-140.79
-145.01
-146.90
-146.97
-146.51
-146.86
-148.84
-152.19
-155.77
-158.23
-158.52
-156.31
-152.01
-146.46
-140.64
-135.72
-132.71
-132.26
-134.24
-137.23
-138.78
-136.11
-127.08
-111.07
-89.08
-63.01
-34.34
-3.63
29.50
65.16
101.81
135.96
162.77
177.82
178.83
166.74
145.07
118.77
92.56
69.82
52.30
40.34
33.37
30.37
30.21
31.77
34.13
36.44
38.08
38.95
39.70
41.89
47.83
59.51
77.43
99.70
121.76
137.71
142.37
133.05
110.68
79.58
46.02
16.63
-2.94
-9.15
-1.45
17.76
43.79
71.36
96.33
116.42
130.87
139.10
139.77
130.73
110.54
80.00
43.03
5.67
-26.18
-49.06
-63.06
-71.07
-76.84
-83.03
-90.08
-96.44
-99.80
-98.68
-93.35
-86.15
-80.43
-79.08
-83.03
-90.62
-98.18
-101.36
-96.90
-83.50
-61.95
-34.45
-3.70
27.70
57.59
84.26
106.58
123.88
136.02
143.16
145.83
145.01
142.10
138.81
136.57
135.92
136.16
135.59
132.36
125.42
115.28
103.55
92.32
82.89
75.35
68.74
61.80
53.99
45.66
37.86
31.58
27.44
25.84
27.58
34.13
46.99
66.55
90.70
114.83
132.94
140.29
135.33
120.61
101.39
83.15
69.49
61.02
56.13
52.35
47.58
40.46
30.04
15.51
-3.74
-27.54
-54.61
-82.54
-108.54
-130.32
-146.73
-157.88
-164.61
-168.19
-169.79
-170.46
-170.98
-171.68
-172.15
-171.13
-166.88
-157.74
-143.15
-123.92
-102.13
-80.07
-59.05
-38.84
-17.97
5.08
30.49
56.76
81.08
100.73
114.36
122.51
126.87
129.26
130.48
130.19
127.52
121.96
113.98
104.95
96.52
89.68
84.55
80.32
75.65
69.25
60.33
48.86
35.52
21.60
8.45
-2.78
-11.46
-17.61
-21.71
-24.35
-25.98
-26.82
-26.89
-26.25
-25.09
-23.85
-23.25
-24.14
-27.42
-33.79
-43.55
-56.28
-70.81
-85.29
-97.67
-106.37
-110.73
-111.47
-110.32
-109.44
-110.76
-115.44
-123.94
-136.31
-152.36
-171.76
-193.83
-217.38
-240.77
-262.48
-281.44
-297.14
-309.15
-316.49
-317.55
-310.57
-294.84
-271.43
-243.38
-214.45
-187.75
-164.50
-143.99
-124.52
-104.77
-84.57
-64.62
-45.65
-27.47
-9.12
10.32
30.67
50.25
66.65
77.88
83.45
84.64
83.62
82.20
81.06
79.72
77.09
72.46
65.91
58.01
49.37
40.19
30.28
19.44
8.06
-2.72
-11.09
-15.05
-13.04
-4.38
10.21
28.76
48.49
66.79
82.08
94.33
104.76
114.94
125.58
135.81
143.32
145.40
140.16
127.54
109.33
88.48
68.38
52.49
44.07
46.02
59.91
84.37
113.87
139.24
150.08
138.97
105.05
55.01
0.94
-44.77
-74.37
-87.20
-88.66
-86.33
-85.80
-88.59
-93.06
-97.02
-100.13
-104.26
-111.74
-123.09
-136.01
-146.31
-150.34
-147.15
-138.88
-129.37
-121.82
-116.99
-112.82
-105.57
-91.37
-67.81
-34.83
5.32
48.62
90.18
125.37
150.80
165.13
169.47
166.80
161.21
156.59
155.64
159.24
166.63
175.84
184.48
190.52
192.27
188.71
179.66
166.36
151.95
141.20
138.71
146.19
160.57
174.10
177.64
164.82
135.38
95.21
53.20
17.07
-9.78
-28.15
-40.82
-49.64
-54.51
-54.35
-49.05
-40.64
-32.85
-29.34
-32.03
-40.58
-52.88
-66.24
-78.42
-87.61
-92.27
-90.98
-82.56
-66.61
-44.03
-17.31
9.53
31.69
44.94
46.85
37.82
21.07
1.52
-16.02
-28.14
-33.49
-32.27
-25.31
-13.59
2.24
21.59
43.68
67.29
90.68
111.64
127.79
137.07
138.26
131.64
119.18
103.87
88.80
76.21
66.91
60.51
56.13
52.84
50.01
47.20
43.77
39.03
32.53
24.12
14.33
4.43
-3.97
-9.17
-10.08
-6.55
0.70
10.37
21.04
31.81
42.24
52.24
61.72
70.34
77.62
83.20
87.03
89.12
89.34
87.20
81.90
72.76
59.70
43.22
24.27
3.71
-17.93
-40.04
-61.54
-80.59
-94.76
-101.74
-100.45
-91.42
-76.65
-58.85
-40.48
-23.24
-8.07
4.49
14.12
20.60
23.88
24.28
22.30
18.66
14.07
9.37
5.58
3.86
5.24
10.20
18.28
27.90
36.85
42.89
44.55
41.54
34.61
25.12
14.43
3.51
-7.32
-17.96
-28.32
-38.01
-46.35
-52.75
-57.19
-60.46
-63.90
-68.69
-74.98
-81.71
-87.12
-89.70
-89.24
-86.79
-83.79
-80.63
-75.92
-66.70
-50.19
-25.63
4.71
35.87
62.08
78.90
84.72
80.93
70.92
58.71
47.73
40.29
37.37
38.80
43.40
49.21
53.96
55.57
52.86
45.74
35.05
22.01
7.85
-6.47
-20.04
-32.05
-42.12
-50.68
-59.22
-69.85
-84.26
-102.43
-122.49
-141.40
-156.57
-167.06
-173.65
-177.77
-180.19
-180.20
-175.92
-165.51
-148.47
-126.05
-101.17
-77.34
-57.69
-44.09
-36.37
-32.41
-28.72
-21.80
-9.41
8.23
28.75
48.76
65.42
77.52
85.34
89.89
92.00
92.11
90.16
86.03
79.51
69.92
56.20
37.13
12.12
-18.07
-51.05
-83.30
-111.16
-131.64
-143.32
-146.26
-141.72
-131.61
-117.89
-102.23
-85.67
-68.34
-49.20
-26.55
1.32
34.52
70.68
105.02
131.71
146.27
147.56
138.42
124.11
109.80
97.96
87.63
75.60
58.50
34.81
5.27
-27.75
-61.65
-94.35
-124.48
-151.00
-172.80
-188.95
-199.18
-204.49
-207.05
-209.36
-212.97
-217.39
-219.89
-216.51
-203.66
-179.64
-145.26
-103.26
-56.92
-8.93
38.94
85.34
128.33
165.15
192.85
209.55
215.36
212.54
204.33
193.79
182.67
171.30
159.27
146.26
132.47
118.30
103.94
89.16
73.67
58.00
43.82
33.67
29.97
33.96
45.08
61.31
79.94
98.51
115.23
129.20
140.35
149.26
157.04
165.07
174.35
184.63
193.85
198.24
193.49
176.66
147.55
109.03
66.07
23.94
-13.23
-43.14
-64.93
-78.72
-85.39
-86.77
-85.88
-86.38
-91.37
-102.21
-118.19
-137.20
-156.99
-176.08
-193.67
-209.14
-221.48
-229.55
-232.61
-230.93
-225.48
-217.10
-205.76
-190.69
-171.17
-147.77
-122.78
-99.53
-81.34
-70.30
-66.92
-70.13
-77.33
-84.79
-87.88
-81.95
-63.56
-31.73
11.41
60.91
110.06
152.16
181.86
196.21
195.04
180.70
157.47
130.64
105.25
84.99
71.43
63.92
60.30
57.94
54.81
49.90
43.27
35.48
27.18
18.89
11.01
3.99
-1.56
-5.21
-6.87
-6.86
-5.82
-4.32
-2.57
-0.43
2.29
5.55
8.60
10.10
8.40
2.04
-9.68
-26.25
-45.98
-66.44
-85.05
-99.91
-110.28
-116.46
-119.61
-121.10
-122.13
-123.35
-124.49
-124.26
-120.16
-109.10
-88.33
-56.94
-16.79
27.55
69.89
104.48
127.48
137.58
135.39
122.61
101.72
76.17
50.62
30.32
19.73
20.69
31.59
47.91
64.12
75.83
81.21
80.89
76.81
70.96
64.63
58.61
53.58
50.41
49.63
50.52
50.87
47.45
37.42
19.78
-3.89
-29.79
-53.49
-71.69
-83.32
-89.20
-90.85
-89.11
-83.62
-73.36
-58.08
-39.50
-21.35
-8.21
-3.58
-8.25
-19.97
-34.34
-46.76
-54.22
-56.22
-54.24
-50.43
-46.18
-41.55
-35.58
-27.15
-15.93
-2.68
10.89
22.90
31.89
37.31
39.57
39.74
38.96
37.94
36.67
34.65
31.24
26.15
19.56
12.08
4.42
-2.75
-8.77
-12.91
-14.31
-12.45
-7.48
-0.63
6.24
11.27
13.48
13.01
10.71
7.33
3.04
-2.69
-10.42
-19.94
-29.92
-38.12
-42.18
-40.54
-32.99
-20.69
-5.95
8.20
18.49
22.00
16.91
3.15
-17.44
-41.39
-64.60
-83.28
-94.86
-98.19
-93.48
-82.01
-65.57
-46.02
-24.76
-2.60
20.35
44.13
68.34
91.64
111.85
126.81
135.16
137.03
133.98
128.14
121.46
114.89
108.37
101.22
92.76
82.66
71.11
58.72
46.40
35.40
27.28
23.46
24.53
29.91
37.90
46.58
54.59
61.71
68.59
76.60
87.66
104.08
128.20
161.27
201.97
245.41
283.58
307.67
311.15
292.44
255.37
207.47
156.72
108.99
66.84
30.22
-2.28
-32.42
-62.32
-94.70
-132.58
-178.08
-230.46
-284.95
-333.22
-365.99
-376.48
-363.48
-332.07
-291.45
-251.16
-217.60
-192.35
-173.09
-156.10
-138.63
-120.04
-101.30
-83.73
-68.00
-53.86
-40.66
-27.96
-15.73
-4.24
6.46
16.57
26.12
34.44
39.88
40.36
34.37
22.00
5.22
-12.72
-28.58
-40.25
-47.41
-51.06
-52.73
-53.74
-54.90
-56.57
-58.86
-61.73
-64.74
-67.00
-67.27
-64.34
-57.46
-46.87
-33.76
-19.99
-7.59
1.90
7.83
10.50
10.92
10.40
10.03
10.49
11.94
14.09
16.62
19.24
22.03
25.31
29.49
34.82
41.09
47.50
52.82
55.95
56.22
53.76
49.32
44.07
39.13
35.35
33.16
32.74
34.19
37.42
42.04
47.10
51.19
52.83
50.91
45.23
36.42
25.79
14.81
4.86
-2.99
-8.10
-10.19
-9.41
-6.24
-1.34
4.56
10.70
16.36
20.83
23.29
23.25
20.75
16.62
12.13
8.35
5.58
3.13
0.00
-4.38
-9.39
-13.53
-15.15
-13.56
-9.55
-5.13
-2.57
-3.19
-6.84
-12.11
-17.29
-21.22
-23.67
-25.10
-26.00
-26.40
-26.06
-24.85
-23.23
-22.13
-22.18
-23.09
-23.58
-22.17
-18.14
-11.92
-4.57
3.35
12.34
23.69
38.28
55.51
73.10
88.32
99.55
107.31
113.80
121.42
131.39
142.93
154.05
162.68
167.59
168.73
166.92
163.50
159.70
156.52
154.28
152.59
150.64
147.77
144.13
140.70
138.90
139.31
141.00
141.23
136.39
123.44
101.09
70.20
33.36
-5.84
-43.84
-77.67
-105.62
-127.64
-145.33
-161.44
-178.65
-198.33
-219.90
-241.22
-259.92
-274.76
-286.26
-296.04
-305.48
-314.23
-319.83
-318.28
-305.67
-279.67
-240.50
-191.09
-136.24
-81.56
-31.89
9.71
42.45
67.39
86.34
100.95
111.91
119.34
123.35
124.72
124.99
125.96
129.12
135.09
143.62
153.64
163.41
170.68
172.84
167.52
153.71
132.50
107.18
82.35
62.16
48.57
40.42
33.63
22.78
3.29
-26.62
-64.99
-106.41
-143.82
-170.81
-183.60
-181.97
-168.57
-147.39
-122.18
-95.95
-71.22
-50.49
-36.42
-30.93
-34.25
-44.31
-57.48
-70.10
-79.70
-85.52
-87.97
-87.83
-85.62
-81.64
-76.31
-70.32
-64.33
-58.43
-51.94
-43.82
-33.53
-21.88
-11.05
-3.68
-1.54
-4.23
-8.76
-10.73
-6.20
6.50
25.86
47.92
68.00
82.83
91.54
95.31
95.88
94.09
89.50
81.06
68.48
52.94
37.02
23.41
13.80
8.28
5.60
4.08
2.24
-0.79
-5.32
-11.26
-18.28
-25.97
-33.85
-41.58
-48.86
-55.28
-59.68
-59.84
-52.69
-35.54
-7.48
29.53
70.59
109.30
139.67
157.89
162.86
155.38
136.82
108.22
70.59
25.82
-22.23
-67.86
-104.76
-127.90
-134.96
-126.86
-106.85
-79.30
-48.31
-16.96
12.94
40.48
65.51
88.30
109.29
128.74
146.33
161.16
171.93
177.19
175.72
167.00
151.48
130.72
107.13
83.35
61.57
42.99
27.62
14.47
1.94
-11.84
-28.45
-48.56
-71.17
-93.48
-111.32
-120.49
-118.54
-105.99
-86.32
-64.80
-46.40
-34.06
-27.92
-25.79
-24.27
-20.16
-11.50
2.09
19.40
38.24
56.06
70.60
80.29
84.47
83.17
77.12
67.74
57.22
48.18
42.97
42.67
46.43
51.98
56.69
59.13
59.88
61.00
64.79
72.46
83.31
94.97
104.25
107.82
102.70
86.38
57.01
14.13
-40.17
-100.63
-159.23
-207.08
-236.95
-245.41
-233.86
-208.23
-176.95
-148.60
-129.82
-123.95
-131.11
-148.76
-172.83
-198.64
-221.91
-239.12
-247.69
-245.82
-232.07
-205.51
-166.04
-114.62
-53.64
13.11
80.68
143.23
194.44
228.49
241.35
231.87
202.66
159.86
112.01
68.13
35.65
18.72
17.65
29.08
47.22
65.62
78.89
84.03
80.71
70.74
56.98
42.27
28.91
18.57
12.36
10.59
12.49
15.98
18.16
16.50
10.05
0.10
-10.43
-18.49
-22.45
-22.87
-21.87
-21.99
-24.70
-29.88
-36.19
-42.02
-46.34
-48.85
-49.71
-48.94
-46.37
-41.85
-35.60
-28.28
-20.71
-13.38
-6.29
0.79
7.84
14.11
18.53
20.15
18.87
15.61
11.90
9.12
7.87
7.88
8.44
9.26
10.77
13.88
19.27
26.70
34.93
42.33
47.70
50.96
52.94
54.66
56.34
57.18
55.65
50.70
42.80
34.22
28.36
28.31
35.35
48.28
63.90
78.19
88.03
92.30
92.13
90.24
89.60
92.11
98.04
105.98
113.33
117.17
115.07
105.61
88.78
65.96
39.79
13.83
-7.99
-22.43
-27.90
-25.40
-18.23
-10.36
-4.49
-0.76
2.86
8.83
17.78
27.97
36.45
41.29
43.30
45.55
51.09
60.46
70.68
76.48
73.20
58.93
35.01
4.74
-28.70
-63.35
-98.38
-133.18
-166.51
-196.19
-219.60
-234.52
-239.63
-234.98
-221.79
-202.30
-179.36
-155.88
-134.07
-114.98
-98.56
-83.65
-68.80
-52.77
-35.03
-16.04
3.06
20.98
36.92
50.82
63.46
75.83
88.65
102.01
115.02
125.94
132.42
132.09
123.26
105.63
80.56
50.92
20.58
-6.46
-26.90
-38.90
-42.58
-39.94
-34.37
-29.62
-28.59
-32.14
-38.66
-44.46
-45.24
-37.78
-21.50
1.08
24.75
43.20
50.81
44.29
23.81
-7.23
-43.43
-79.16
-110.43
-135.80
-155.98
-172.64
-186.73
-197.58
-203.11
-201.13
-190.82
-173.85
-154.26
-137.11
-126.37
-123.02
-124.47
-125.55
-120.74
-106.46
-82.29
-50.66
-15.15
21.49
58.52
97.01
138.28
182.34
226.76
267.09
298.19
315.95
318.51
306.47
282.09
247.99
206.23
158.11
105.07
49.77
-3.31
-48.45
-80.53
-97.12
-99.50
-92.33
-81.79
-73.08
-68.82
-68.60
-69.71
-68.87
-63.53
-52.61
-36.58
-16.90
4.52
25.80
45.36
62.24
75.88
86.22
93.65
98.83
102.49
105.10
106.59
106.18
102.72
95.12
83.16
67.77
50.78
34.11
18.83
4.74
-9.35
-24.44
-40.50
-55.87
-68.02
-74.81
-75.72
-72.02
-66.15
-60.57
-57.07
-56.65
-59.68
-66.07
-75.10
-84.95
-92.79
-95.69
-91.85
-81.47
-66.93
-51.60
-38.41
-28.62
-21.76
-16.51
-11.91
-7.92
-5.27
-4.76
-6.46
-9.50
-12.70
-15.95
-21.08
-31.50
-50.49
-78.81
-113.19
-146.95
-172.36
-184.15
-181.79
-169.48
-153.83
-140.68
-132.85
-129.92
-129.55
-129.50
-129.16
-129.56
-132.53
-139.25
-149.26
-160.00
-167.30
-166.67
-154.86
-130.96
-96.61
-55.17
-10.55
33.68
74.75
110.44
139.08
159.68
172.29
178.05
178.85
176.21
170.83
162.70
151.88
139.35
126.92
116.42
108.49
102.15
95.35
86.48
75.57
64.45
55.74
51.16
50.56
52.06
53.34
53.06
51.50
50.28
51.14
55.17
62.47
72.70
85.61
101.28
119.71
140.12
160.66
178.58
191.07
196.23
193.63
184.26
169.97
152.95
135.09
117.88
102.06
87.83
74.90
62.70
50.78
38.86
27.00
15.37
4.19
-6.57
-17.01
-27.30
-37.46
-47.23
-56.15
-63.72
-69.63
-73.79
-76.24
-77.15
-76.58
-74.67
-71.77
-68.44
-65.53
-63.93
-64.08
-65.93
-68.88
-72.21
-75.52
-79.01
-83.07
-87.78
-92.20
-94.37
-91.98
-83.34
-68.30
-48.57
-27.13
-7.18
8.92
20.21
26.97
29.93
29.70
26.56
20.78
13.31
5.84
0.36
-1.90
-1.30
-0.04
-1.28
-7.64
-19.93
-36.56
-54.19
-69.15
-78.98
-83.00
-82.18
-77.89
-70.88
-60.80
-46.75
-28.47
-7.38
13.30
29.28
36.83
34.22
22.43
4.84
-13.97
-29.49
-38.18
-37.80
-27.51
-7.71
19.96
52.68
86.81
118.56
144.80
163.53
174.00
176.41
171.58
160.68
145.18
126.79
107.19
87.62
68.39
49.04
28.94
8.12
-12.28
-30.43
-44.50
-53.49
-57.28
-56.20
-50.26
-38.90
-21.65
0.77
25.53
48.07
63.38
67.99
61.22
45.06
23.13
-0.91
-24.30
-45.43
-63.33
-77.54
-88.03
-95.38
-100.94
-106.37
-113.15
-121.93
-132.47
-143.67
-153.92
-161.23
-163.36
-158.43
-145.61
-125.68
-101.13
-75.42
-51.85
-32.54
-18.00
-7.48
0.30
6.46
11.69
16.40
20.98
25.71
30.71
35.76
40.43
44.32
47.48
50.42
54.09
59.61
67.97
79.77
94.90
112.51
130.93
147.81
160.63
167.20
166.30
157.95
143.18
123.56
100.73
76.19
51.43
28.14
8.10
-7.31
-17.60
-23.45
-26.24
-27.32
-27.40
-26.50
-24.14
-19.92
-13.70
-5.55
4.19
14.95
25.77
35.25
41.85
44.45
42.62
36.60
27.07
14.67
0.10
-15.58
-30.63
-42.76
-49.77
-50.40
-44.69
-33.82
-19.53
-3.65
12.21
26.76
39.21
49.43
57.73
64.47
69.39
71.50
69.36
62.11
50.20
35.54
20.90
8.74
0.48
-3.68
-4.34
-2.32
1.63
6.75
12.26
17.65
22.97
28.88
36.22
45.24
55.38
65.56
75.12
84.39
94.71
107.43
122.65
138.42
150.88
155.63
149.39
131.36
103.48
69.70
34.40
1.00
-28.87
-55.39
-79.70
-103.29
-127.68
-154.49
-185.32
-220.95
-260.04
-298.21
-328.39
-343.00
-336.82
-309.28
-264.78
-210.68
-154.30
-100.64
-52.13
-10.03
23.90
46.81
56.13
51.49
35.93
15.28
-4.19
-18.35
-26.45
-30.46
-33.04
-35.38
-36.63
-34.63
-27.59
-15.31
0.65
18.06
35.30
52.08
69.41
88.55
110.11
133.45
156.88
178.28
195.86
208.63
216.36
219.47
218.58
214.24
206.76
196.28
183.01
167.65
151.46
136.30
124.14
116.35
112.95
112.14
110.56
104.28
90.28
68.01
39.92
11.03
-12.95
-27.68
-31.95
-28.22
-21.62
-17.90
-21.43
-33.75
-53.36
-77.02
-101.27
-123.87
-144.53
-164.80
-186.96
-212.74
-241.81
-270.95
-294.51
-305.77
-299.13
-271.85
-224.96
-162.80
-92.20
-21.26
41.58
88.37
112.71
110.99
83.39
34.15
-29.54
-99.40
-167.88
-229.08
-278.71
-313.23
-329.97
-327.78
-308.08
-275.41
-236.48
-198.02
-164.33
-136.01
-110.20
-82.95
-51.80
-17.61
15.79
43.73
63.39
75.56
83.89
92.66
103.81
115.56
123.22
121.61
108.08
83.98
54.18
24.99
1.61
-13.51
-20.74
-22.20
-20.57
-17.96
-15.71
-14.64
-15.29
-18.33
-24.22
-33.04
-44.07
-55.72
-65.92
-72.84
-75.48
-73.93
-69.34
-63.14
-56.65
-50.75
-45.80
-41.82
-38.69
-36.23
-34.24
-32.68
-31.62
-31.20
-31.52
-32.21
-32.29
-30.36
-25.23
-16.57
-5.36
6.41
16.83
24.93
31.46
38.35
47.70
60.41
75.54
90.58
102.69
110.03
112.36
110.86
107.05
101.89
95.44
87.28
77.26
66.23
56.06
48.99
46.77
49.80
56.88
65.71
73.66
78.79
80.46
79.36
76.76
73.59
69.69
63.91
55.27
44.11
32.67
24.55
23.16
30.09
44.41
63.17
82.75
100.13
113.51
121.89
124.52
120.41
108.75
89.47
63.89
34.71
5.32
-21.21
-42.98
-59.47
-71.28
-79.26
-83.93
-84.97
-81.47
-72.50
-57.91
-38.73
-17.23
3.76
21.55
34.37
41.71
44.14
42.97
39.66
35.49
31.41
28.08
26.02
25.72
27.45
31.12
36.07
41.14
45.00
46.72
46.28
44.78
44.17
46.40
52.43
61.42
70.65
76.21
74.09
61.30
36.78
1.60
-40.87
-85.30
-124.95
-152.89
-163.59
-154.61
-127.28
-86.20
-37.43
13.60
63.34
110.22
153.35
191.12
220.63
238.30
241.62
230.80
209.31
182.83
157.20
136.24
120.59
108.10
95.54
80.66
63.49
46.28
32.06
22.89
18.62
16.95
14.74
9.53
0.63
-10.96
-23.46
-35.62
-47.28
-59.50
-73.52
-89.86
-107.74
-125.33
-140.57
-152.06
-159.43
-163.23
-164.28
-163.15
-159.99
-154.89
-148.28
-141.19
-134.87
-130.20
-127.22
-125.07
-122.50
-118.47
-112.70
-105.62
-97.92
-90.08
-82.04
-73.37
-63.84
-53.77
-43.95
-35.31
-28.28
-22.52
-16.89
-10.00
-0.71
11.27
25.41
40.60
55.55
69.08
80.31
88.51
93.14
93.91
90.92
84.81
76.85
68.62
61.60
56.84
54.63
54.60
56.03
58.10
60.08
61.34
61.26
59.34
55.38
49.51
42.43
35.15
28.61
23.32
19.12
15.23
10.56
4.09
-4.88
-16.39
-29.91
-44.54
-59.35
-73.80
-87.83
-101.66
-115.24
-128.00
-138.63
-145.70
-148.43
-147.29
-144.08
-141.08
-140.04
-141.15
-143.07
-143.55
-140.57
-133.38
-122.65
-110.22
-98.13
-87.88
-80.08
-74.58
-70.85
-68.13
-65.48
-61.49
-54.64
-43.65
-28.25
-9.66
9.56
26.35
38.37
44.87
46.86
46.43
45.74
46.09
47.63
49.62
50.90
50.35
47.20
41.19
32.71
22.91
13.72
7.50
6.37
11.55
22.80
38.38
55.64
71.75
84.60
93.27
97.86
99.14
97.97
94.82
89.80
82.95
74.57
65.53
57.15
50.84
47.64
47.77
50.67
55.25
60.41
65.39
69.92
74.06
77.94
81.54
84.62
86.99
88.55
89.50
89.97
89.87
88.66
85.55
80.23
73.02
64.95
57.07
49.38
40.18
26.46
5.05
-25.57
-64.13
-106.91
-148.74
-184.56
-210.49
-224.31
-225.54
-215.53
-197.59
-176.57
-157.69
-144.62
-137.98
-135.23
-132.19
-125.43
-114.18
-100.60
-88.20
-79.83
-76.19
-76.14
-77.87
-80.04
-82.12
-83.92
-84.60
-82.36
-75.03
-60.86
-39.51
-12.00
20.00
54.59
90.03
124.16
154.22
177.01
189.68
190.64
180.01
159.47
131.63
99.63
67.07
38.20
17.48
8.46
11.94
24.78
40.46
51.41
52.43
43.06
27.62
12.55
2.74
-0.92
-1.69
-4.65
-13.48
-28.27
-45.45
-59.93
-67.90
-68.94
-65.84
-62.82
-63.23
-67.64
-73.99
-78.99
-80.12
-76.87
-71.18
-66.01
-63.80
-65.15
-68.72
-72.50
-74.82
-75.45
-74.71
-72.64
-68.01
-58.25
-40.20
-11.28
29.04
78.31
130.76
178.32
212.32
225.86
215.95
184.46
137.45
83.14
29.37
-18.06
-56.00
-83.42
-100.47
-108.01
-107.61
-101.12
-90.22
-75.66
-57.23
-34.53
-8.60
17.19
37.87
48.38
46.25
32.86
13.03
-7.05
-22.50
-31.22
-33.88
-32.32
-28.15
-21.68
-12.51
-0.67
12.45
24.20
31.77
33.67
30.64
25.45
21.92
23.20
30.45
42.58
56.79
69.94
79.72
85.39
87.47
87.17
85.35
81.98
76.25
67.14
54.29
38.45
21.59
6.33
-5.01
-11.00
-11.55
-7.70
-1.32
5.60
11.24
14.37
14.86
14.08
15.04
21.73
37.57
63.46
96.65
130.95
158.59
173.16
171.73
155.48
128.52
95.65
60.59
25.50
-8.19
-38.76
-63.67
-80.15
-86.42
-82.71
-71.24
-55.35
-38.14
-21.41
-5.63
9.42
23.69
36.28
45.76
51.01
51.92
49.67
46.15
42.97
40.76
38.91
36.07
30.93
22.83
11.84
-1.39
-15.98
-31.07
-45.70
-58.83
-69.46
-76.76
-80.38
-80.66
-78.42
-74.76
-70.83
-67.38
-64.81
-63.24
-62.70
-63.18
-64.68
-66.96
-69.52
-71.64
-72.57
-71.91
-69.73
-66.38
-62.18
-56.98
-50.23
-41.36
-30.33
-17.96
-5.72
4.90
13.11
19.06
23.74
28.43
34.02
40.76
48.26
55.71
62.31
67.56
71.31
73.74
75.22
75.97
75.85
74.46
71.30
66.28
59.88
53.09
46.84
41.61
37.17
32.83
27.97
22.47
16.57
10.50
4.29
-2.14
-8.31
-12.88
-13.54
-7.93
4.98
23.93
45.28
64.23
76.68
80.54
75.98
64.81
49.15
30.51
9.59
-13.22
-37.35
-61.72
-84.78
-104.97
-121.11
-132.61
-139.36
-141.21
-137.64
-127.84
-111.10
-87.42
-58.15
-26.01
5.42
32.79
54.30
69.98
81.35
90.20
97.43
102.74
105.37
105.20
103.46
102.30
103.10
105.24
105.80
100.88
87.65
66.26
39.80
12.91
-10.45
-28.71
-42.47
-53.19
-61.47
-66.57
-66.98
-61.90
-52.18
-40.05
-28.23
-18.68
-12.20
-8.53
-6.87
-6.23
-5.55
-3.87
-0.41
4.90
11.41
18.00
23.71
28.45
33.14
39.19
47.54
57.90
68.56
77.14
81.54
81.13
77.07
71.73
67.68
66.51
68.30
71.50
73.82
73.22
68.72
60.54
49.58
36.81
22.88
8.43
-5.55
-17.59
-26.13
-30.30
-30.41
-27.96
-24.79
-22.22
-20.44
-18.70
-15.89
-11.09
-3.91
5.65
17.45
31.24
46.30
61.28
74.37
83.93
89.34
91.28
91.40
91.53
92.84
95.43
98.63
101.66
103.97
105.08
104.09
99.46
89.55
73.49
52.15
28.21
5.45
-12.61
-23.84
-27.96
-26.19
-20.61
-13.68
-7.90
-5.76
-9.31
-19.71
-36.65
-58.25
-81.48
-103.01
-120.14
-131.22
-135.84
-134.71
-129.45
-122.28
-115.53
-111.16
-110.12
-112.08
-115.22
-116.64
-113.29
-102.96
-85.23
-61.89
-36.55
-13.48
3.73
13.21
14.89
9.99
0.21
-12.78
-27.51
-42.47
-56.03
-66.73
-73.62
-76.70
-76.87
-75.46
-73.69
-72.27
-71.38
-70.77
-70.14
-69.36
-68.29
-66.85
-64.91
-62.26
-58.82
-54.54
-49.57
-44.16
-38.69
-33.62
-29.45
-26.75
-25.93
-27.15
-30.04
-33.76
-37.10
-38.91
-38.52
-35.97
-32.06
-27.80
-24.14
-21.52
-19.95
-19.06
-18.40
-17.52
-16.13
-14.09
-11.46
-8.71
-6.52
-5.62
-6.56
-9.31
-13.40
-18.10
-22.92
-27.73
-32.95
-39.15
-46.73
-55.69
-65.42
-75.00
-83.39
-89.85
-94.03
-96.03
-96.09
-94.40
-91.15
-86.55
-80.99
-75.02
-69.31
-64.48
-61.00
-59.18
-59.10
-60.64
-63.32
-66.45
-69.26
-71.25
-72.40
-73.08
-73.77
-74.79
-76.16
-77.53
-78.40
-78.15
-76.11
-71.57
-63.93
