1638263475.00
64.000000
-0.00
-0.00
-0.00
-0.00
-0.00
-0.00
-0.00
-0.00
-0.00
-0.00
0.00
0.01
0.01
-0.00
-0.03
-0.05
-0.05
0.00
0.13
0.36
0.66
1.01
1.37
1.72
2.06
2.40
2.79
3.24
3.80
4.42
5.06
5.66
6.20
6.68
7.15
7.68
8.31
9.14
10.09
11.04
11.88
12.56
13.14
13.76
14.65
15.96
17.91
20.32
22.90
25.38
27.58
29.57
31.68
34.32
37.81
42.54
48.15
54.10
59.83
64.97
69.58
74.14
79.34
85.71
93.76
103.00
112.62
121.73
129.77
136.75
143.30
150.75
157.77
166.64
177.95
191.79
206.97
220.57
228.25
225.36
208.53
176.87
132.76
80.05
23.07
-34.94
-92.44
-149.16
-205.23
-260.37
-313.74
-363.87
-409.83
-450.91
-486.50
-515.74
-537.23
-549.22
-549.96
-538.37
-514.21
-478.67
-433.88
-382.45
-327.02
-269.84
-212.63
-156.66
-102.95
-52.37
-5.90
35.58
71.43
101.35
125.50
144.38
158.69
169.15
176.37
180.75
182.57
182.07
179.51
175.23
169.65
163.18
156.15
148.81
141.30
133.69
126.02
118.33
110.69
103.16
95.80
88.68
81.82
75.25
68.97
62.98
57.28
51.87
46.75
41.92
37.39
33.18
29.29
25.73
22.48
19.51
16.78
14.29
12.02
9.98
8.20
6.67
5.39
4.34
3.44
2.63
1.87
1.14
0.47
-0.08
-0.46
-0.67
-0.77
-0.85
-1.05
-1.45
-2.04
-2.70
-3.26
-3.57
-3.59
-3.42
-3.28
-3.45
-4.06
-5.10
-6.33
-7.41
-8.03
-8.11
-7.82
-7.56
-7.78
-8.74
-10.39
-12.36
-14.11
-15.21
-15.53
-15.27
-14.89
-14.88
-15.57
-17.17
-19.73
-23.09
-26.67
-29.31
-29.44
-25.66
-17.49
-5.88
6.99
18.47
26.62
30.91
32.18
31.97
31.56
31.44
31.32
30.69
29.36
27.60
26.00
25.02
24.72
24.79
24.84
24.50
23.75
22.88
22.37
22.65
23.89
25.82
27.82
29.13
29.15
27.70
25.03
21.67
18.15
14.76
11.56
8.20
4.43
0.16
-4.46
-9.11
-13.39
-16.94
-19.49
-20.90
-21.21
-20.58
-19.31
-17.74
-16.13
-14.66
-13.40
-12.32
-11.39
-10.64
-10.12
-9.89
-9.96
-10.23
-10.46
-10.43
-9.97
-9.14
-8.10
-7.08
-6.26
-5.71
-5.35
-5.11
-4.95
-4.87
-4.89
-4.98
-5.02
-4.91
-4.60
-4.17
-3.80
-3.69
-3.86
-4.21
-4.48
-4.34
-3.58
-2.19
-0.35
1.64
3.41
4.74
5.56
5.97
6.14
6.17
6.03
5.60
4.77
3.56
2.14
0.79
-0.30
-0.93
-1.08
-0.88
-0.52
-0.24
-0.16
-0.34
-0.76
-1.33
-1.97
-2.67
-3.44
-4.35
-5.43
-6.67
-8.04
-9.48
-10.97
-12.46
-13.89
-15.08
-15.72
-15.43
-13.90
-11.04
-7.09
-2.53
2.04
6.07
9.20
11.31
12.48
12.87
12.68
12.10
11.30
10.49
9.84
9.54
9.64
10.07
10.57
10.81
10.53
9.60
8.12
6.34
4.54
2.93
1.56
0.39
-0.69
-1.77
-2.92
-4.22
-5.75
-7.58
-9.70
-11.93
-13.92
-15.21
-15.39
-14.24
-11.78
-8.35
-4.43
-0.53
2.92
5.72
7.80
9.26
10.18
10.62
10.65
10.37
9.94
9.57
9.44
9.64
10.08
10.53
10.73
10.51
9.84
8.81
7.56
6.22
4.83
3.41
2.01
0.64
-0.64
-1.80
-2.83
-3.77
-4.69
-5.67
-6.87
-8.44
-10.42
-12.72
-15.00
-16.81
-17.67
-17.29
-15.67
-13.07
-9.91
-6.60
-3.43
-0.55
1.96
4.08
5.76
7.01
7.87
8.41
8.73
8.91
9.01
9.08
9.17
9.28
9.35
9.26
8.89
8.21
7.28
6.26
5.31
4.54
3.88
3.16
2.22
0.99
-0.46
-1.91
-3.17
-4.15
-4.92
-5.66
-6.62
-7.94
-9.66
-11.68
-13.83
-15.90
-17.66
-18.88
-19.34
-18.83
-17.27
-14.71
-11.43
-7.81
-4.25
-1.08
1.55
3.60
5.18
6.40
7.35
8.08
8.59
8.88
8.95
8.85
8.68
8.54
8.51
8.60
8.76
8.86
8.80
8.55
8.10
7.49
6.69
5.67
4.38
2.88
1.29
-0.20
-1.40
-2.25
-2.82
-3.33
-4.04
-5.13
-6.69
-8.63
-10.68
-12.47
-13.57
-13.64
-12.55
-10.38
-7.47
-4.21
-0.97
2.03
4.70
7.01
8.96
10.48
11.54
12.16
12.45
12.56
12.57
12.50
12.30
11.91
11.31
10.59
9.87
9.26
8.82
8.53
8.30
8.03
7.53
6.64
5.25
3.40
1.28
-0.81
-2.60
-3.93
-4.87
-5.56
-6.21
-6.96
-7.87
-9.01
-10.42
-12.14
-14.11
-16.08
-17.61
-18.23
-17.62
-15.73
-12.85
-9.46
-6.04
-2.90
-0.16
2.24
4.39
6.31
7.90
9.04
9.67
9.82
9.67
9.47
9.37
9.43
9.56
9.61
9.48
9.16
8.74
8.32
7.93
7.46
6.75
5.64
4.16
2.47
0.85
-0.46
-1.37
-1.94
-2.36
-2.84
-3.53
-4.46
-5.64
-7.01
-8.56
-10.24
-12.02
-13.79
-15.39
-16.60
-17.18
-16.96
-15.85
-13.93
-11.42
-8.61
-5.78
-3.10
-0.63
1.62
3.65
5.35
6.62
7.36
7.59
7.44
7.11
6.83
6.73
6.82
7.03
7.26
7.39
7.33
7.05
6.53
5.81
4.97
4.08
3.23
2.42
1.62
0.76
-0.21
-1.29
-2.47
-3.71
-5.03
-6.49
-8.13
-9.97
-11.94
-13.98
-16.00
-17.99
-19.98
-22.01
-24.05
-25.99
-27.64
-28.79
-29.29
-29.09
-28.26
-26.97
-25.43
-23.89
-22.50
-21.42
-20.72
-20.41
-20.48
-20.78
-21.08
-21.04
-20.27
-18.43
-15.32
-10.93
-5.46
0.73
7.22
13.56
19.40
24.48
28.70
32.03
34.49
36.09
36.79
36.55
35.34
33.28
30.58
27.57
24.60
21.90
19.59
17.56
15.61
13.49
10.99
8.09
4.94
1.88
-0.63
-2.17
-2.48
-1.51
0.49
3.11
5.84
8.27
10.17
11.51
12.34
12.80
12.97
12.93
12.76
12.56
12.44
12.46
12.56
12.62
12.44
11.92
11.10
10.14
9.24
8.53
8.00
7.48
6.78
5.77
4.41
2.86
1.32
0.01
-0.98
-1.70
-2.31
-2.96
-3.75
-4.66
-5.64
-6.65
-7.70
-8.89
-10.27
-11.80
-13.24
-14.27
-14.56
-13.90
-12.35
-10.10
-7.46
-4.68
-1.97
0.60
2.94
4.95
6.49
7.44
7.76
7.54
7.04
6.52
6.28
6.41
6.86
7.42
7.82
7.84
7.41
6.64
5.74
4.92
4.32
3.92
3.60
3.17
2.49
1.53
0.35
-0.92
-2.18
-3.35
-4.42
-5.44
-6.45
-7.46
-8.50
-9.60
-10.79
-12.04
-13.27
-14.31
-14.93
-14.92
-14.18
-12.69
-10.57
-8.02
-5.29
-2.67
-0.41
1.29
2.37
2.90
3.03
2.93
2.75
2.59
2.49
2.50
2.70
3.12
3.74
4.46
5.13
5.62
5.88
5.93
5.84
5.65
5.31
4.75
3.90
2.78
1.49
0.21
-0.88
-1.69
-2.23
-2.65
-3.16
-3.97
-5.25
-7.06
-9.25
-11.50
-13.37
-14.41
-14.36
-13.20
-11.13
-8.54
-5.78
-3.08
-0.60
1.58
3.33
4.50
4.99
4.86
4.33
3.75
3.44
3.57
4.09
4.80
5.46
5.92
6.12
6.11
6.00
5.80
5.46
4.90
4.05
2.93
1.65
0.40
-0.66
-1.45
-2.02
-2.51
-3.07
-3.81
-4.76
-5.89
-7.15
-8.54
-9.98
-11.37
-12.49
-13.09
-12.95
-12.00
-10.35
-8.23
-5.92
-3.66
-1.57
0.27
1.80
2.98
3.76
4.19
4.37
4.44
4.52
4.71
4.99
5.32
5.58
5.67
5.54
5.20
4.74
4.22
3.71
3.15
2.50
1.67
0.63
-0.55
-1.78
-2.98
-4.16
-5.41
-6.87
-8.59
-10.54
-12.60
-14.65
-16.63
-18.54
-20.35
-21.91
-22.95
-23.19
-22.47
-20.91
-18.93
-17.12
-16.06
-16.10
-17.29
-19.40
-22.12
-25.16
-28.39
-31.81
-35.51
-39.58
-44.04
-48.87
-53.97
-59.27
-64.75
-70.47
-76.56
-83.24
-90.71
-99.13
-108.49
-118.56
-128.94
-139.20
-149.09
-158.70
-168.48
-179.01
-190.78
-203.82
-217.56
-230.71
-241.26
-246.68
-244.29
-231.96
-208.83
-175.81
-135.42
-91.09
-45.93
-1.82
41.07
83.96
128.52
175.72
225.05
274.29
319.88
357.67
383.80
395.57
392.05
374.37
345.62
310.19
272.82
237.62
207.39
183.36
165.37
152.34
142.66
134.62
126.57
117.10
105.28
90.90
74.51
57.36
40.95
26.52
14.76
5.66
-1.24
-6.49
-10.41
-12.96
-13.84
-12.82
-10.00
-6.00
-1.91
1.01
1.72
-0.20
-4.43
-9.99
-15.67
-20.39
-23.57
-25.08
-25.16
-24.10
-22.11
-19.30
-15.77
-11.80
-7.78
-4.13
-1.06
1.47
3.78
6.23
9.03
12.14
15.32
18.38
21.27
24.13
27.01
29.65
31.38
31.27
28.56
23.16
15.84
8.11
1.84
-1.28
-0.01
6.30
17.74
33.77
53.19
74.10
94.16
111.14
123.48
130.75
133.58
133.14
130.51
126.08
119.38
109.31
94.71
74.91
50.15
21.68
-8.40
-37.67
-63.93
-85.65
-102.19
-113.67
-120.75
-124.23
-124.93
-123.66
-121.17
-118.23
-115.49
-113.27
-111.53
-109.81
-107.51
-104.11
-99.40
-93.53
-87.00
-80.39
-74.12
-68.41
-63.15
-58.11
-53.08
-48.00
-43.05
-38.51
-34.64
-31.52
-29.02
-26.86
-24.73
-22.42
-19.86
-17.14
-14.41
-11.84
-9.63
-7.93
-6.84
-6.36
-6.36
-6.60
-6.87
-7.02
-7.06
-7.17
-7.55
-8.37
-9.70
-11.50
-13.64
-15.91
-18.03
-19.63
-20.29
-19.69
-17.72
-14.57
-10.70
-6.68
-3.01
-0.01
2.22
3.79
4.84
5.51
5.88
6.00
5.98
5.91
5.97
6.26
6.81
7.50
8.13
8.50
8.44
7.91
6.97
5.74
4.32
2.79
1.24
-0.27
-1.64
-2.77
-3.67
-4.42
-5.24
-6.35
-7.91
-9.94
-12.27
-14.56
-16.37
-17.23
-16.77
-14.84
-11.59
-7.48
-3.07
1.12
4.78
7.83
10.35
12.39
13.92
14.88
15.23
15.12
14.79
14.54
14.52
14.68
14.81
14.73
14.34
13.69
12.89
12.05
11.19
10.25
9.12
7.70
5.94
3.84
1.46
-1.06
-3.56
-5.90
-8.06
-10.08
-12.15
-14.51
-17.27
-20.39
-23.55
-26.23
-27.82
-27.85
-26.09
-22.68
-18.05
-12.81
-7.57
-2.81
1.20
4.34
6.61
8.06
8.80
8.94
8.68
8.21
7.77
7.54
7.60
7.92
8.42
8.95
9.40
9.70
9.80
9.65
9.18
8.35
7.14
5.62
3.93
2.20
0.51
-1.09
-2.63
-4.10
-5.55
-7.07
-8.83
-11.01
-13.70
-16.63
-19.25
-20.76
-20.49
-18.19
-14.15
-9.16
-4.12
0.27
3.72
6.25
8.03
9.08
9.13
7.79
4.76
0.04
-5.97
-12.63
-19.28
-25.47
-31.01
-35.91
-40.25
-44.07
-47.31
-49.92
-51.79
-52.64
-51.82
-48.25
-40.75
-28.53
-11.73
8.43
29.85
50.15
67.35
80.13
87.86
90.33
87.54
79.72
67.51
52.23
35.84
20.70
8.95
1.97
0.02
2.25
7.07
12.73
17.86
21.61
23.61
23.66
21.79
18.34
14.28
11.06
10.12
12.15
16.65
22.26
27.72
32.75
38.32
45.91
56.31
68.67
80.68
89.57
93.52
92.39
87.49
80.59
72.87
64.55
55.26
44.79
33.60
22.76
13.37
5.83
-0.40
-6.58
-14.12
-23.87
-35.66
-48.35
-60.10
-68.99
-73.57
-73.26
-68.55
-60.86
-52.08
-44.06
-37.99
-34.16
-32.04
-30.60
-28.89
-26.34
-22.94
-19.07
-15.25
-11.88
-9.16
-7.13
-5.75
-5.08
-5.21
-6.30
-8.39
-11.39
-14.96
-18.58
-21.65
-23.68
-24.34
-23.69
-22.06
-20.02
-18.12
-16.78
-16.25
-16.52
-17.50
-18.95
-20.51
-21.67
-21.83
-20.50
-17.47
-13.00
-7.74
-2.53
1.95
5.33
7.59
8.95
9.65
9.92
9.93
9.91
10.08
10.61
11.50
12.55
13.45
13.91
13.82
13.30
12.63
12.05
11.71
11.57
11.43
11.13
10.55
9.74
8.80
7.86
6.99
6.21
5.52
4.88
4.21
3.35
2.16
0.63
-0.98
-2.13
-2.15
-0.53
2.87
7.68
13.22
18.77
23.81
28.07
31.48
33.99
35.48
35.80
34.88
32.83
29.98
26.80
23.73
21.12
19.08
17.58
16.38
15.20
13.77
11.91
9.46
6.35
2.53
-1.95
-6.88
-11.90
-16.55
-20.41
-23.25
-25.11
-26.31
-27.27
-28.38
-29.82
-31.49
-33.08
-34.15
-34.24
-33.02
-30.38
-26.47
-21.64
-16.35
-11.10
-6.28
-2.15
1.14
3.57
5.21
6.24
6.81
7.07
7.07
6.83
6.33
5.65
4.92
4.33
3.99
3.92
4.04
4.26
4.56
4.95
5.41
5.82
5.89
5.39
4.20
2.50
0.67
-0.91
-2.06
-2.96
-4.05
-5.81
-8.42
-11.67
-14.90
-17.29
-18.14
-17.10
-14.28
-10.16
-5.40
-0.55
3.96
7.98
11.45
14.30
16.39
17.53
17.57
16.52
14.61
12.26
9.93
7.99
6.61
5.76
5.29
5.01
4.76
4.47
4.13
3.71
3.20
2.60
1.90
1.06
0.03
-1.31
-3.14
-5.58
-8.64
-12.12
-15.62
-18.70
-20.97
-22.22
-22.43
-21.70
-20.15
-17.91
-15.11
-11.96
-8.68
-5.53
-2.68
-0.20
1.91
3.74
5.29
6.51
7.22
7.29
6.65
5.42
3.91
2.46
1.36
0.67
0.27
-0.03
-0.41
-0.86
-1.29
-1.58
-1.75
-1.94
-2.33
-3.05
-4.10
-5.39
-6.80
-8.28
-9.77
-11.25
-12.67
-13.97
-15.11
-16.04
-16.71
-16.93
-16.46
-15.07
-12.68
-9.42
-5.64
-1.81
1.64
4.37
6.24
7.27
7.61
7.50
7.25
7.09
7.18
7.48
7.85
8.08
8.01
7.59
6.86
5.97
5.04
4.20
3.49
2.91
2.38
1.76
0.93
-0.13
-1.39
-2.70
-3.92
-4.96
-5.82
-6.64
-7.61
-8.87
-10.50
-12.37
-14.18
-15.50
-15.89
-15.08
-12.99
-9.86
-6.15
-2.43
0.77
3.14
4.59
5.25
5.33
5.07
4.66
4.23
3.87
3.65
3.59
3.65
3.72
3.69
3.42
2.90
2.17
1.37
0.60
-0.12
-0.87
-1.78
-2.96
-4.37
-5.88
-7.24
-8.23
-8.75
-8.87
-8.79
-8.79
-9.13
-9.96
-11.27
-12.81
-14.19
-14.91
-14.55
-12.94
-10.22
-6.82
-3.30
-0.17
2.28
4.01
5.21
6.11
6.91
7.68
8.41
9.04
9.50
9.78
9.89
9.86
9.69
9.38
8.93
8.39
7.81
7.27
6.76
6.24
5.59
4.70
3.55
2.24
0.92
-0.25
-1.21
-2.05
-2.98
-4.24
-5.95
-8.07
-10.39
-12.64
-14.55
-15.92
-16.62
-16.54
-15.63
-13.87
-11.37
-8.42
-5.45
-2.96
-1.40
-1.07
-2.11
-4.54
-8.35
-13.46
-19.67
-26.35
-32.50
-37.00
-39.08
-38.91
-37.66
-37.15
-38.90
-43.28
-49.20
-54.58
-57.57
-57.53
-55.44
-53.28
-52.83
-54.79
-58.55
-62.83
-66.43
-68.58
-68.69
-65.91
-59.03
-46.91
-29.35
-7.65
15.63
37.52
55.83
69.79
79.92
87.25
92.38
95.10
94.66
90.50
82.89
73.21
63.61
56.28
52.58
52.64
55.32
58.91
61.90
63.66
64.57
65.63
67.67
70.78
74.09
76.16
75.66
71.98
65.57
57.57
49.26
41.42
34.03
26.56
18.44
9.66
0.92
-6.65
-12.09
-15.14
-16.35
-16.78
-17.46
-18.88
-20.90
-23.11
-25.30
-27.89
-31.79
-37.95
-46.65
-57.18
-67.98
-77.32
-84.04
-87.97
-89.80
-90.47
-90.62
-90.27
-88.98
-86.22
-81.73
-75.58
-68.02
-59.20
-49.12
-37.69
-24.95
-11.15
3.18
17.37
30.68
42.54
52.67
61.04
67.89
73.54
78.15
81.69
83.96
84.77
84.08
82.11
79.15
75.48
71.22
66.37
60.92
54.94
48.58
41.96
35.09
27.90
20.45
12.97
5.82
-0.70
-6.71
-12.73
-19.50
-27.45
-36.33
-45.15
-52.57
-57.40
-59.14
-58.06
-54.94
-50.73
-46.22
-41.85
-37.82
-34.16
-30.86
-27.84
-24.98
-22.18
-19.33
-16.36
-13.14
-9.51
-5.25
-0.19
5.69
12.16
18.86
25.37
31.34
36.52
40.77
44.14
46.79
49.09
51.55
54.74
59.02
64.38
70.31
75.86
80.06
82.24
82.39
81.10
79.21
77.37
75.75
73.99
71.59
68.14
63.44
57.46
50.06
41.13
30.66
19.10
7.27
-3.81
-13.47
-21.58
-28.56
-34.99
-41.17
-46.95
-51.84
-55.38
-57.53
-58.73
-59.80
-61.53
-64.41
-68.33
-72.57
-76.00
-77.45
-76.32
-72.82
-68.02
-63.46
-60.55
-60.09
-62.12
-66.15
-71.46
-77.13
-81.75
-83.29
-79.23
-67.45
-47.29
-20.28
10.04
39.15
62.95
78.94
86.32
85.62
77.91
64.43
46.80
27.29
8.83
-5.63
-13.96
-15.62
-11.61
-3.86
5.62
15.36
24.57
32.86
39.90
45.25
48.60
50.09
50.46
50.77
52.02
54.61
58.11
61.49
63.45
62.76
58.52
50.36
38.65
24.91
11.81
2.67
0.18
5.03
15.10
26.01
32.79
32.02
23.10
8.17
-9.37
-26.52
-41.80
-55.11
-66.76
-76.49
-83.32
-86.07
-84.32
-78.92
-71.79
-65.15
-60.61
-58.59
-58.38
-58.65
-58.13
-56.19
-52.97
-49.17
-45.58
-42.76
-40.80
-39.44
-38.31
-37.19
-36.06
-35.15
-34.72
-34.88
-35.45
-35.97
-35.87
-34.61
-31.95
-27.96
-23.07
-17.86
-12.95
-8.76
-5.50
-3.10
-1.34
0.06
1.29
2.41
3.40
4.21
4.82
5.27
5.67
6.06
6.42
6.64
6.58
6.23
5.66
5.08
4.65
4.45
4.38
4.21
3.69
2.71
1.33
-0.22
-1.66
-2.80
-3.62
-4.29
-5.11
-6.30
-7.93
-9.84
-11.65
-12.92
-13.28
-12.58
-10.88
-8.44
-5.59
-2.68
0.05
2.41
4.31
5.69
6.52
6.87
6.88
6.80
6.86
7.25
8.06
9.24
10.59
11.87
12.84
13.33
13.28
12.75
11.84
10.65
9.27
7.76
6.18
4.63
3.21
1.96
0.89
-0.13
-1.27
-2.72
-4.57
-6.77
-9.18
-11.58
-13.78
-15.60
-16.86
-17.31
-16.73
-14.96
-12.04
-8.21
-3.86
0.55
4.65
8.16
10.96
12.95
14.14
14.56
14.37
13.84
13.26
12.91
12.89
13.19
13.69
14.25
14.75
15.10
15.22
15.02
14.43
13.41
12.03
10.34
8.43
6.38
4.20
2.00
-0.15
-2.15
-3.98
-5.73
-7.61
-9.87
-12.67
-15.88
-19.12
-21.78
-23.21
-22.94
-20.86
-17.18
-12.41
-7.14
-1.91
2.89
7.03
10.43
13.02
14.79
15.76
16.04
15.89
15.66
15.73
16.31
17.42
18.80
20.01
20.64
20.44
19.37
17.62
15.45
13.10
10.71
8.32
5.96
3.68
1.59
-0.19
-1.61
-2.67
-3.48
-4.20
-5.04
-6.24
-7.99
-10.42
-13.45
-16.73
-19.61
-21.32
-21.21
-18.99
-14.87
-9.47
-3.61
2.01
6.93
10.97
14.17
16.59
18.31
19.38
19.90
20.02
20.00
20.06
20.36
20.89
21.51
21.97
22.04
21.56
20.56
19.25
17.91
16.75
15.79
14.87
13.71
12.07
9.90
7.38
4.83
2.58
0.77
-0.66
-1.94
-3.37
-5.17
-7.45
-10.19
-13.25
-16.39
-19.19
-21.12
-21.64
-20.34
-17.20
-12.59
-7.19
-1.77
3.10
7.16
10.40
12.93
14.83
16.08
16.67
16.65
16.27
15.90
15.86
16.30
17.09
17.91
18.42
18.37
17.75
16.71
15.51
14.36
13.35
12.43
11.41
10.14
8.54
6.64
4.60
2.60
0.79
-0.76
-2.11
-3.38
-4.77
-6.49
-8.68
-11.39
-14.46
-17.53
-20.02
-21.28
-20.78
-18.30
-14.09
-8.76
-3.12
2.12
6.50
9.91
12.43
14.18
15.23
15.62
15.42
14.84
14.22
13.91
14.08
14.67
15.39
15.87
15.85
15.31
14.46
13.62
13.04
12.72
12.47
11.92
10.79
8.96
6.57
3.91
1.34
-0.92
-2.81
-4.41
-5.90
-7.43
-9.15
-11.13
-13.37
-15.81
-18.18
-20.15
-21.25
-21.07
-19.39
-16.24
-11.96
-7.11
-2.25
2.10
5.67
8.40
10.37
11.73
12.57
12.95
12.93
12.59
12.07
11.62
11.41
11.57
12.04
12.60
12.94
12.78
11.96
10.51
8.64
6.59
4.56
2.64
0.76
-1.16
-3.13
-5.06
-6.83
-8.32
-9.52
-10.52
-11.42
-12.32
-13.28
-14.35
-15.61
-17.11
-18.82
-20.59
-22.12
-23.01
-22.80
-20.97
-17.06
-10.83
-2.46
7.36
17.40
26.22
32.52
35.54
35.24
32.21
27.42
21.90
16.54
11.97
8.57
6.44
5.43
5.18
5.23
5.15
4.74
3.98
2.99
1.93
0.96
0.15
-0.43
-0.79
-0.98
-1.15
-1.49
-2.22
-3.50
-5.39
-7.82
-10.68
-13.83
-17.09
-20.24
-22.89
-24.56
-24.79
-23.29
-20.09
-15.54
-10.15
-4.49
1.04
6.20
10.88
15.07
18.71
21.63
23.62
24.36
23.59
21.14
17.10
11.76
5.66
-0.58
-6.45
-11.61
-15.89
-19.22
-21.64
-23.27
-24.42
-25.57
-27.23
-29.78
-33.29
-37.43
-41.71
-45.66
-49.13
-52.39
-56.05
-60.83
-67.23
-75.31
-84.47
-93.49
-100.71
-104.53
-104.00
-99.42
-92.40
-85.54
-81.48
-81.93
-87.04
-95.41
-104.93
-113.73
-120.95
-126.81
-132.05
-137.27
-142.35
-146.23
-147.11
-142.77
-130.93
-109.52
-77.21
-34.06
17.85
74.29
129.48
177.51
213.95
237.07
247.86
249.14
244.03
234.73
222.08
206.10
186.86
165.28
143.15
122.55
105.07
91.20
80.45
71.91
64.89
59.23
55.22
53.15
52.87
53.76
54.96
55.77
55.90
55.55
55.11
54.91
55.02
55.24
55.14
54.31
52.45
49.54
45.86
41.96
38.49
35.90
34.25
33.02
31.48
28.90
25.08
20.32
15.34
10.85
7.17
4.10
1.05
-2.59
-7.16
-12.53
-18.14
-23.17
-26.84
-28.61
-28.40
-26.70
-24.43
-22.80
-22.84
-25.07
-29.29
-34.65
-39.91
-43.94
-45.98
-45.76
-43.39
-39.17
-33.48
-26.78
-19.67
-12.92
-7.29
-3.36
-1.27
-0.74
-1.10
-1.64
-1.82
-1.39
-0.46
0.67
1.62
2.11
2.00
1.33
0.30
-0.80
-1.62
-1.95
-1.77
-1.28
-0.88
-1.06
-2.15
-4.20
-6.85
-9.41
-11.02
-10.96
-8.89
-4.97
0.15
5.46
9.94
12.75
13.50
12.31
9.76
6.63
3.72
1.55
0.32
-0.03
0.26
0.93
1.72
2.30
2.29
1.27
-1.03
-4.62
-9.14
-13.98
-18.43
-21.91
-24.13
-25.09
-25.02
-24.27
-23.23
-22.22
-21.46
-20.97
-20.61
-20.18
-19.51
-18.64
-17.76
-17.18
-17.08
-17.44
-17.95
-18.12
-17.46
-15.66
-12.69
-8.87
-4.74
-0.88
2.31
4.83
7.01
9.37
12.36
16.15
20.46
24.77
28.34
30.39
30.25
27.38
21.60
13.27
3.40
-6.53
-14.88
-20.47
-22.99
-23.08
-22.02
-21.24
-21.74
-23.76
-26.82
-29.92
-31.97
-32.08
-29.83
-25.32
-19.19
-12.39
-5.91
-0.56
3.34
5.91
7.66
9.10
10.54
11.92
12.83
12.81
11.57
9.22
6.29
3.51
1.58
0.90
1.52
3.09
5.00
6.48
6.87
5.70
2.87
-1.33
-6.35
-11.63
-16.77
-21.71
-26.61
-31.59
-36.47
-40.69
-43.54
-44.47
-43.39
-40.68
-36.92
-32.57
-27.76
-22.38
-16.35
-9.78
-3.13
3.02
8.15
12.00
14.56
15.99
16.49
16.24
15.49
14.47
13.43
12.53
11.75
10.97
10.01
8.83
7.52
6.38
5.78
6.06
7.36
9.55
12.29
15.13
17.66
19.66
21.14
22.29
23.40
24.66
26.16
27.80
29.36
30.55
31.17
31.14
30.62
30.04
29.94
30.80
32.70
35.16
37.27
37.86
35.97
31.10
23.37
13.43
2.34
-8.68
-18.46
-26.08
-31.16
-33.89
-35.07
-35.83
-37.29
-40.15
-44.51
-49.91
-55.49
-60.34
-63.60
-64.71
-63.41
-59.81
-54.33
-47.64
-40.48
-33.45
-26.97
-21.24
-16.32
-12.18
-8.84
-6.35
-4.82
-4.34
-4.98
-6.65
-9.04
-11.56
-13.40
-13.72
-11.95
-8.08
-2.83
2.58
6.77
8.69
8.03
5.29
1.63
-1.50
-2.78
-1.35
3.07
10.19
19.21
29.00
38.23
45.56
49.96
51.01
49.03
45.06
40.54
36.84
34.95
35.24
37.55
41.39
46.16
51.23
55.99
59.92
62.62
64.02
64.31
63.90
63.12
62.08
60.65
58.56
55.76
52.48
49.33
47.04
46.29
47.47
50.63
55.36
60.86
65.99
69.54
70.64
69.03
65.11
59.67
53.35
46.24
37.88
27.55
14.87
0.01
-16.31
-33.26
-50.21
-66.80
-82.88
-98.16
-112.16
-124.19
-133.48
-139.22
-140.63
-137.04
-128.05
-113.86
-95.52
-74.85
-54.06
-35.25
-19.87
-8.56
-1.18
2.90
4.71
5.47
6.53
9.02
13.50
19.62
26.09
31.05
32.79
30.48
24.46
15.97
6.59
-2.49
-10.74
-18.22
-25.09
-31.19
-35.95
-38.75
-39.34
-38.13
-36.21
-34.83
-34.83
-36.24
-38.40
-40.30
-41.15
-40.73
-39.31
-37.34
-35.13
-32.67
-29.79
-26.52
-23.16
-20.32
-18.55
-18.04
-18.51
-19.34
-19.83
-19.48
-18.09
-15.67
-12.35
-8.21
-3.24
2.68
9.78
18.23
28.06
38.94
50.15
60.61
69.11
74.61
76.51
74.76
69.81
62.45
53.51
43.75
33.75
23.90
14.51
5.79
-2.11
-9.10
-15.16
-20.30
-24.60
-28.17
-31.16
-33.67
-35.77
-37.41
-38.50
-38.92
-38.72
-38.11
-37.50
-37.25
-37.54
-38.15
-38.56
-38.11
-36.30
-32.99
-28.48
-23.33
-18.15
-13.41
-9.30
-5.75
-2.55
0.46
3.28
5.78
7.74
9.04
9.72
10.03
10.30
10.77
11.49
12.27
12.79
12.76
12.06
10.76
9.06
7.17
5.25
3.35
1.46
-0.46
-2.48
-4.63
-6.98
-9.58
-12.46
-15.51
-18.45
-20.82
-22.10
-21.85
-19.90
-16.40
-11.82
-6.80
-1.89
2.51
6.23
9.29
11.74
13.58
14.74
15.14
14.77
13.79
12.54
11.40
10.66
10.44
10.59
10.77
10.64
9.96
8.74
7.17
5.56
4.12
2.89
1.73
0.37
-1.41
-3.76
-6.64
-9.94
-13.43
-16.80
-19.71
-21.68
-22.30
-21.24
-18.51
-14.37
-9.36
-4.12
0.85
5.19
8.77
11.54
13.53
14.76
15.28
15.22
14.76
14.12
13.52
13.07
12.80
12.64
12.46
12.09
11.40
10.34
8.92
7.27
5.55
3.89
2.34
0.86
-0.70
-2.49
-4.68
-7.31
-10.38
-13.70
-16.95
-19.62
-21.14
-21.00
-18.94
-15.13
-10.08
-4.53
0.79
5.38
9.04
11.78
13.70
14.92
15.46
15.41
14.89
14.16
13.54
13.30
13.54
14.14
14.80
15.10
14.74
13.63
11.89
9.83
7.75
5.84
4.13
2.52
0.88
-0.85
-2.70
-4.69
-6.89
-9.43
-12.36
-15.57
-18.61
-20.83
-21.53
-20.22
-16.90
-12.05
-6.51
-1.13
3.46
7.06
9.80
11.95
13.69
15.03
15.86
16.10
15.85
15.32
14.77
14.38
14.16
14.05
13.92
13.71
13.38
12.91
12.21
11.19
9.80
8.03
6.00
3.89
1.93
0.23
-1.20
-2.49
-3.88
-5.62
-7.89
-10.64
-13.55
-15.99
-17.28
-16.85
-14.50
-10.51
-5.49
-0.17
4.82
9.13
12.61
15.29
17.21
18.41
18.92
18.85
18.36
17.65
16.92
16.36
16.08
16.09
16.30
16.55
16.59
16.23
15.40
14.14
12.58
10.85
9.01
7.10
5.14
3.19
1.36
-0.31
-1.86
-3.46
-5.35
-7.68
-10.37
-13.06
-15.21
-16.23
-15.71
-13.57
-10.04
-5.64
-1.01
3.31
6.97
9.80
11.84
13.13
13.79
13.91
13.62
13.11
12.60
12.27
12.20
12.34
12.50
12.53
12.31
11.85
11.16
10.25
9.08
7.57
5.78
3.85
2.05
0.62
-0.36
-0.97
-1.47
-2.15
-3.21
-4.70
-6.60
-8.74
-10.87
-12.66
-13.68
-13.55
-12.03
-9.15
-5.25
-0.88
3.37
7.03
9.85
11.82
12.97
13.35
12.95
11.75
9.84
7.44
4.89
2.58
0.77
-0.47
-1.23
-1.70
-2.01
-2.24
-2.35
-2.30
-2.07
-1.63
-0.86
0.42
2.33
4.89
7.78
10.41
12.03
11.94
9.66
5.07
-1.60
-9.75
-18.53
-26.95
-33.98
-38.82
-41.07
-40.86
-38.80
-35.69
-32.33
-29.28
-26.85
-25.10
-23.95
-23.18
-22.57
-21.81
-20.65
-18.93
-16.63
-13.82
-10.65
-7.24
-3.67
-0.03
3.61
7.08
10.19
12.73
14.47
15.25
14.99
13.71
11.66
9.27
7.11
5.68
5.16
5.25
5.20
4.04
1.01
-4.06
-10.64
-17.58
-23.59
-27.62
-29.19
-28.44
-25.91
-22.23
-17.95
-13.48
-9.11
-5.14
-1.87
0.45
1.70
1.97
1.52
0.71
-0.22
-1.13
-2.09
-3.15
-4.30
-5.38
-6.14
-6.37
-6.10
-5.54
-5.02
-4.73
-4.66
-4.54
-4.12
-3.22
-2.00
-0.74
0.21
0.68
0.65
0.17
-0.71
-2.07
-3.95
-6.24
-8.55
-10.35
-11.18
-10.93
-9.88
-8.67
-7.94
-8.07
-9.08
-10.69
-12.44
-13.91
-14.76
-14.76
-13.73
-11.58
-8.32
-4.14
0.64
5.68
10.71
15.66
20.57
25.47
30.17
34.24
37.09
38.22
37.44
35.03
31.61
27.93
24.63
21.99
19.92
18.10
16.16
13.80
10.90
7.46
3.66
-0.23
-3.78
-6.52
-8.06
-8.24
-7.23
-5.46
-3.44
-1.61
-0.14
0.99
1.97
2.93
4.00
5.22
6.63
8.27
10.13
12.11
13.99
15.58
16.74
17.50
17.97
18.28
18.45
18.44
18.17
17.63
16.90
16.10
15.32
14.53
13.60
12.30
10.48
8.15
5.46
2.73
0.30
-1.53
-2.55
-2.62
-1.68
0.21
2.81
5.68
8.24
9.89
10.31
9.53
7.95
6.17
4.75
3.96
3.76
3.86
3.81
3.27
2.07
0.29
-1.84
-4.02
-6.00
-7.78
-9.49
-11.45
-13.93
-17.06
-20.78
-24.86
-29.01
-33.01
-36.79
-40.43
-44.09
-47.92
-52.00
-56.25
-60.50
-64.46
-67.84
-70.40
-72.06
-72.87
-73.02
-72.70
-72.12
-71.44
-70.80
-70.32
-70.11
-70.19
-70.47
-70.73
-70.66
-70.00
-68.47
-65.79
-61.56
-55.20
-46.09
-33.92
-18.86
-1.82
15.80
32.54
47.35
59.97
70.86
80.89
90.79
100.80
110.62
119.57
126.95
132.20
134.87
134.58
130.99
123.93
113.70
101.24
88.02
75.79
65.99
59.42
56.04
55.10
55.49
56.04
55.80
54.13
50.77
45.87
39.85
33.32
26.82
20.59
14.53
8.19
1.11
-6.92
-15.64
-24.45
-32.58
-39.45
-44.77
-48.60
-51.13
-52.57
-53.10
-52.83
-51.84
-50.10
-47.52
-43.94
-39.29
-33.66
-27.39
-20.85
-14.39
-8.18
-2.30
3.06
7.53
10.65
12.13
12.06
10.89
9.30
7.80
6.65
5.82
5.19
4.74
4.59
4.92
5.87
7.42
9.36
11.30
12.68
12.86
11.38
8.26
4.11
0.09
-2.52
-2.89
-1.03
2.13
5.14
6.59
5.69
2.52
-2.13
-7.12
-11.33
-13.87
-14.08
-11.54
-6.06
2.07
11.97
22.13
30.79
36.43
38.20
36.18
31.17
24.37
16.88
9.46
2.47
-3.95
-9.67
-14.37
-17.48
-18.37
-16.70
-12.74
-7.50
-2.49
0.88
1.94
1.02
-0.78
-2.37
-3.32
-4.16
-6.10
-10.35
-17.42
-26.89
-37.51
-47.55
-55.28
-59.27
-58.59
-52.99
-42.98
-29.81
-15.21
-0.99
11.37
20.97
27.57
31.36
32.74
32.16
29.99
26.63
22.50
18.12
14.05
10.75
8.50
7.26
6.82
6.98
7.75
9.34
12.00
15.74
20.17
24.56
28.19
30.67
32.06
32.73
32.89
32.35
30.41
26.25
19.30
9.65
-1.87
-14.00
-25.48
-35.46
-43.57
-49.92
-54.80
-58.46
-61.00
-62.41
-62.77
-62.28
-61.33
-60.28
-59.32
-58.40
-57.24
-55.61
-53.56
-51.45
-49.84
-49.20
-49.57
-50.45
-50.92
-50.05
-47.26
-42.59
-36.70
-30.60
-25.24
-21.24
-18.68
-17.28
-16.60
-16.29
-16.25
-16.54
-17.18
-18.01
-18.57
-18.21
-16.35
-12.65
-7.17
-0.21
7.85
16.65
25.90
35.24
44.14
51.97
58.18
62.64
65.69
68.06
70.52
73.50
76.95
80.44
83.42
85.50
86.56
86.74
86.30
85.45
84.30
82.86
81.09
78.93
76.34
73.30
69.87
66.11
62.10
57.96
53.80
49.79
46.14
42.95
40.15
37.44
34.37
30.59
26.03
21.00
16.07
11.79
8.48
6.16
4.59
3.50
2.65
1.79
0.59
-1.42
-4.67
-9.30
-14.99
-21.04
-26.71
-31.65
-36.13
-40.95
-46.96
-54.57
-63.46
-72.65
-80.91
-87.22
-91.06
-92.52
-92.12
-90.72
-89.29
-88.71
-89.37
-90.99
-92.47
-92.25
-88.79
-81.11
-69.13
-53.59
-35.76
-17.05
1.18
17.72
31.62
42.36
50.16
56.03
61.55
68.15
76.36
85.32
92.94
96.81
95.26
88.21
77.24
64.92
53.67
44.87
38.49
33.54
28.89
23.91
18.76
14.04
10.35
7.75
5.78
3.71
0.99
-2.48
-6.34
-10.00
-12.91
-14.82
-15.78
-16.05
-15.80
-15.00
-13.36
-10.57
-6.49
-1.38
4.15
9.32
13.54
16.52
18.21
18.56
17.33
14.02
8.25
0.10
-9.51
-18.96
-26.40
-30.47
-30.76
-27.86
-23.02
-17.60
-12.67
-8.86
-6.42
-5.30
-5.31
-6.10
-7.38
-9.03
-11.33
-14.96
-20.66
-28.81
-39.03
-50.08
-60.07
-67.21
-70.32
-69.13
-64.31
-57.01
-48.44
-39.48
-30.67
-22.19
-14.19
-6.82
-0.33
4.97
8.88
11.32
12.45
12.64
12.39
12.20
12.28
12.45
12.19
10.79
7.80
3.27
-2.13
-7.28
-11.01
-12.44
-11.15
-7.25
-1.33
5.49
11.64
15.42
15.50
11.63
5.03
-1.85
-6.23
-6.21
-1.56
6.24
14.92
22.56
28.48
33.12
37.46
42.03
46.40
49.45
50.00
47.56
42.62
36.35
29.99
24.32
19.37
14.74
9.87
4.42
-1.56
-7.79
-13.90
-19.68
-25.01
-29.93
-34.52
-38.82
-42.86
-46.63
-50.10
-53.22
-55.90
-58.07
-59.66
-60.56
-60.59
-59.51
-57.01
-52.84
-46.94
-39.59
-31.35
-23.01
-15.31
-8.69
-3.25
1.28
5.33
9.26
13.21
17.07
20.54
23.32
25.28
26.47
27.10
27.35
27.28
26.82
25.88
24.46
22.71
20.89
19.21
17.69
16.17
14.32
11.88
8.65
4.62
-0.12
-5.37
-10.81
-15.94
-20.10
-22.60
-22.92
-20.93
-16.97
-11.76
-6.10
-0.68
4.13
8.23
11.69
14.53
16.63
17.81
17.89
16.89
15.07
12.85
10.71
8.97
7.71
6.75
5.82
4.68
3.28
1.74
0.23
-1.10
-2.26
-3.37
-4.60
-6.05
-7.72
-9.59
-11.65
-13.92
-16.37
-18.84
-20.91
-21.99
-21.48
-18.97
-14.49
-8.48
-1.71
5.01
11.01
15.91
19.64
22.25
23.86
24.56
24.46
23.71
22.55
21.29
20.13
19.12
18.12
16.89
15.21
13.03
10.44
7.67
4.97
2.48
0.25
-1.75
-3.64
-5.60
-7.86
-10.62
-14.02
-17.97
-22.10
-25.82
-28.45
-29.41
-28.42
-25.54
-21.19
-15.97
-10.51
-5.31
-0.75
2.97
5.69
7.35
7.93
7.52
6.33
4.68
2.95
1.52
0.66
0.47
0.87
1.60
2.34
2.78
2.71
2.19
1.42
0.72
0.34
0.35
0.57
0.66
0.26
-0.88
-2.78
-5.24
-7.86
-10.14
-11.59
-11.80
-10.58
-7.98
-4.32
-0.11
4.09
7.75
10.53
12.26
12.98
12.89
12.27
11.40
10.48
9.63
8.88
8.25
7.76
7.37
7.03
6.61
5.95
4.95
3.64
2.21
0.89
-0.10
-0.76
-1.23
-1.79
-2.72
-4.15
-6.07
-8.25
-10.38
-12.11
-13.14
-13.29
-12.47
-10.71
-8.14
-4.97
-1.49
1.94
4.99
7.36
8.89
9.59
9.52
8.87
7.80
6.54
5.28
4.22
3.49
3.11
3.01
2.99
2.82
2.36
1.60
0.63
-0.40
-1.35
-2.16
-2.86
-3.59
-4.47
-5.68
-7.32
-9.46
-11.98
-14.59
-16.80
-18.03
-17.81
-15.90
-12.48
-8.05
-3.33
1.05
4.66
7.33
9.10
10.01
10.09
9.34
7.84
5.83
3.71
1.89
0.61
-0.09
-0.43
-0.71
-1.19
-1.98
-3.05
-4.32
-5.71
-7.18
-8.69
-10.25
-11.88
-13.67
-15.73
-18.21
-21.15
-24.48
-27.92
-31.05
-33.41
-34.67
-34.72
-33.67
-31.83
-29.51
-26.98
-24.35
-21.61
-18.67
-15.50
-12.04
-8.30
-4.26
0.11
4.89
10.09
15.64
21.35
26.86
31.77
35.69
38.34
39.65
39.71
38.76
37.07
34.89
32.34
29.50
26.37
22.95
19.26
15.35
11.33
7.32
3.49
0.03
-2.85
-4.90
-5.88
-5.56
-3.88
-1.01
2.62
6.41
9.82
12.52
14.42
15.64
16.36
16.61
16.33
15.45
14.03
12.35
10.77
9.62
8.99
8.73
8.55
8.19
7.52
6.57
5.46
4.26
2.99
1.56
-0.11
-2.01
-4.02
-5.98
-7.71
-9.15
-10.42
-11.76
-13.47
-15.70
-18.36
-21.05
-23.15
-24.04
-23.26
-20.71
-16.69
-11.84
-6.83
-2.24
1.62
4.72
7.16
9.08
10.53
11.51
12.03
12.17
12.08
11.92
11.80
11.74
11.67
11.48
11.09
10.49
9.69
8.80
7.89
7.04
6.20
5.31
4.24
2.90
1.31
-0.43
-2.13
-3.66
-4.99
-6.24
-7.62
-9.38
-11.65
-14.38
-17.31
-19.99
-21.88
-22.49
-21.49
-18.84
-14.81
-9.89
-4.66
0.34
4.75
8.36
11.09
12.96
14.05
14.50
14.50
14.27
14.01
13.85
13.77
13.70
13.51
13.15
12.64
12.09
11.62
11.29
11.08
10.86
10.46
9.70
8.52
6.93
5.04
3.01
1.02
-0.80
-2.42
-3.86
-5.25
-6.77
-8.59
-10.84
-13.49
-16.33
-18.95
-20.85
-21.51
-20.62
-18.14
-14.31
-9.64
-4.70
-0.03
4.06
7.41
10.01
11.91
13.14
13.69
13.61
13.02
12.15
11.26
10.57
10.17
10.04
10.02
9.95
9.73
9.35
8.86
8.34
7.79
7.13
6.19
4.84
3.04
0.91
-1.27
-3.23
-4.80
-6.04
-7.20
-8.61
-10.56
-13.15
-16.22
-19.35
-21.97
-23.46
-23.38
-21.54
-18.09
-13.47
-8.24
-2.95
1.98
6.30
9.85
12.53
14.30
15.16
15.21
14.65
13.73
12.70
11.75
11.00
10.50
10.26
10.22
10.29
10.37
10.36
10.21
9.97
9.65
9.25
8.67
7.79
6.53
4.93
3.14
1.31
-0.46
-2.18
-3.94
-5.82
-7.85
-10.00
-12.26
-14.64
-17.14
-19.60
-21.66
-22.79
-22.44
-20.32
-16.52
-11.56
-6.15
-0.99
3.46
7.05
9.82
11.91
13.40
14.30
14.62
14.44
13.91
13.26
12.69
12.29
12.10
12.05
12.09
12.16
12.21
12.18
12.02
11.64
11.00
10.11
9.00
7.71
6.27
4.68
2.91
0.99
-1.00
-2.94
-4.74
-6.36
-7.86
-9.38
-11.08
-13.06
-15.37
-17.90
-20.47
-22.77
-24.46
-25.16
-24.59
-22.62
-19.32
-15.00
-10.07
-4.99
-0.17
4.10
7.65
10.42
12.41
13.68
14.30
14.38
14.07
13.53
12.93
12.41
12.05
11.87
11.85
11.93
12.08
12.28
12.49
12.69
12.82
12.84
12.70
12.34
11.69
10.74
9.48
8.05
6.66
5.48
4.61
3.93
3.22
2.19
0.67
-1.32
-3.55
-5.67
-7.32
-8.14
-7.87
-6.34
-3.55
0.26
4.63
8.92
12.54
15.02
16.13
15.84
14.30
11.70
8.28
4.37
0.37
-3.20
-5.90
-7.44
-7.82
-7.31
-6.33
-5.26
-4.32
-3.51
-2.73
-1.91
-1.09
-0.43
-0.15
-0.38
-1.12
-2.25
-3.61
-5.01
-6.29
-7.29
-7.91
-8.12
-8.07
-8.06
-8.42
-9.37
-10.85
-12.51
-13.80
-14.18
-13.32
-11.20
-8.14
-4.61
-1.17
1.76
3.90
5.19
5.74
5.72
5.37
4.95
4.67
4.72
5.19
6.10
7.36
8.79
10.17
11.35
12.28
12.94
13.38
13.58
13.47
12.88
11.70
9.89
7.52
4.77
1.89
-0.93
-3.56
-5.94
-8.11
-10.14
-12.14
-14.26
-16.65
-19.35
-22.19
-24.75
-26.42
-26.59
-24.94
-21.61
-17.09
-12.11
-7.33
-3.15
0.30
3.08
5.22
6.73
7.57
7.83
7.70
7.47
7.41
7.64
8.08
8.55
8.84
8.85
8.58
8.14
7.62
7.12
6.69
6.32
5.96
5.53
4.91
4.01
2.83
1.46
0.11
-1.06
-1.99
-2.75
-3.53
-4.56
-6.01
-7.83
-9.82
-11.58
-12.63
-12.50
-10.93
-7.93
-3.83
0.76
5.14
8.74
11.20
12.44
12.55
11.72
10.09
7.84
5.17
2.35
-0.29
-2.43
-3.83
-4.44
-4.36
-3.84
-3.13
-2.45
-1.95
-1.63
-1.46
-1.42
-1.51
-1.81
-2.45
-3.48
-4.83
-6.32
-7.68
-8.73
-9.42
-9.96
-10.65
-11.82
-13.63
-16.03
-18.76
-21.35
-23.35
-24.33
-24.01
-22.30
-19.30
-15.30
-10.70
-6.02
-1.71
1.89
4.63
6.57
7.88
8.71
9.20
9.40
9.33
9.12
8.90
8.85
9.02
9.38
9.78
10.06
10.11
9.92
9.52
8.94
8.11
6.94
5.35
3.36
1.03
-1.50
-4.11
-6.65
-9.02
-11.08
-12.75
-14.03
-15.05
-16.09
-17.41
-19.17
-21.29
-23.37
-24.87
-25.25
-24.18
-21.64
-17.90
-13.38
-8.57
-3.86
0.46
4.22
7.34
9.75
11.47
12.51
12.96
12.95
12.69
12.42
12.33
12.55
13.05
13.69
14.26
14.57
14.55
14.24
13.78
13.30
12.83
12.28
11.49
10.28
8.60
6.52
4.24
2.00
-0.03
-1.77
-3.28
-4.63
-5.90
-7.15
-8.44
-9.89
-11.63
-13.77
-16.24
-18.75
-20.79
-21.74
-21.11
-18.77
-14.96
-10.27
-5.40
-0.94
2.76
5.58
7.58
8.89
9.61
9.85
9.73
9.42
9.11
8.97
9.08
9.44
10.03
10.77
11.60
12.41
13.07
13.45
13.47
13.14
12.55
11.84
11.11
10.33
9.41
8.20
6.66
4.87
3.01
1.26
-0.26
-1.56
-2.75
-3.97
-5.35
-6.98
-8.86
-11.04
-13.49
-16.12
-18.71
-20.89
-22.16
-22.09
-20.43
-17.19
-12.75
-7.66
-2.55
2.06
5.84
8.69
10.63
11.76
12.15
11.85
10.98
9.74
8.47
7.52
7.16
7.43
8.09
8.79
9.16
9.07
8.63
8.07
7.62
7.30
6.98
6.40
5.38
3.90
2.07
0.12
-1.74
-3.37
-4.72
-5.82
-6.77
-7.70
-8.79
-10.22
-12.08
-14.36
-16.84
-19.16
-20.83
-21.37
-20.46
-18.03
-14.30
-9.75
-4.99
-0.54
3.23
6.17
8.30
9.67
10.35
10.39
9.89
8.99
7.89
6.82
5.95
5.36
5.09
5.09
5.24
5.41
5.44
5.18
4.55
3.53
2.17
0.58
-1.15
-2.98
-4.92
-6.98
-9.16
-11.41
-13.68
-15.93
-18.13
-20.26
-22.27
-24.01
-25.34
-26.13
-26.34
-26.03
-25.30
-24.16
-22.45
-19.93
-16.35
-11.66
-6.11
-0.18
5.56
10.68
14.97
18.55
21.67
24.63
27.63
30.79
34.20
37.95
42.08
46.47
50.76
54.28
56.35
56.42
54.37
50.54
45.53
39.94
34.09
27.99
21.47
14.37
6.73
-1.22
-9.16
-16.77
-23.82
-30.09
-35.35
-39.35
-41.83
-42.73
-42.23
-40.80
-39.05
-37.53
-36.55
-36.08
-35.82
-35.30
-34.04
-31.66
-27.96
-22.95
-16.84
-9.98
-2.79
4.29
10.91
16.80
21.73
25.54
28.12
29.54
30.03
30.01
29.96
30.25
31.06
32.27
33.56
34.59
35.14
35.24
35.11
35.01
35.08
35.18
34.98
34.21
32.79
31.06
29.60
29.01
29.64
31.40
33.87
36.46
38.72
40.46
41.70
42.62
43.42
44.23
45.06
45.82
46.31
46.26
45.39
43.54
40.69
37.05
32.94
28.66
24.46
20.44
16.71
13.39
10.61
8.45
6.75
5.22
3.38
0.87
-2.48
-6.52
-10.93
-15.40
-19.83
-24.32
-29.06
-34.13
-39.44
-44.80
-50.10
-55.37
-60.72
-66.11
-71.22
-75.41
-78.14
-79.32
-79.52
-79.76
-81.03
-83.75
-87.45
-91.08
-93.48
-93.89
-92.08
-88.13
-82.16
-74.08
-63.89
-51.99
-39.36
-27.37
-17.15
-9.01
-2.25
4.40
12.03
20.86
30.01
37.94
43.12
44.53
41.75
34.88
24.47
11.81
-0.91
-10.89
-15.69
-14.49
-8.79
-1.86
2.87
3.70
1.52
-0.81
-0.31
4.22
11.46
18.38
21.98
20.95
16.07
9.50
3.41
-1.11
-4.26
-7.03
-10.41
-14.71
-19.47
-23.78
-26.73
-27.86
-27.22
-25.28
-22.60
-19.53
-16.15
-12.33
-7.94
-3.10
1.77
6.02
9.00
10.30
9.97
8.51
6.71
5.37
5.03
5.79
7.33
9.07
10.44
11.06
10.93
10.27
9.46
8.77
8.27
7.78
7.03
5.76
3.87
1.53
-0.98
-3.31
-5.22
-6.61
-7.57
-8.32
-9.07
-10.02
-11.28
-12.87
-14.72
-16.58
-18.09
-18.80
-18.29
-16.33
-13.01
-8.69
-3.97
0.62
4.68
8.06
10.78
12.90
14.45
15.38
15.61
15.13
14.11
12.78
11.50
10.53
10.01
9.92
10.05
10.21
10.28
10.28
10.29
10.38
10.43
10.16
9.28
7.67
5.47
3.09
0.99
-0.55
-1.56
-2.35
-3.33
-4.82
-6.95
-9.63
-12.63
-15.61
-18.22
-20.05
-20.75
-20.09
-18.04
-14.82
-10.83
-6.56
-2.48
1.09
3.97
6.16
7.67
8.60
8.99
8.94
8.55
7.98
7.49
7.25
7.36
7.80
8.45
9.17
9.85
10.42
10.86
11.09
11.02
10.54
9.58
8.18
6.46
4.63
2.86
1.28
-0.07
-1.26
-2.43
-3.71
-5.26
-7.13
-9.34
-11.85
-14.52
-17.16
-19.46
-21.03
-21.45
-20.40
-17.83
-13.97
-9.33
-4.49
0.07
4.09
7.49
10.26
12.41
13.85
14.56
14.59
14.12
13.45
12.87
12.56
12.58
12.86
13.23
13.49
13.47
13.05
12.21
11.09
9.86
8.70
7.69
6.76
5.77
4.54
3.03
1.32
-0.42
-2.05
-3.49
-4.81
-6.16
-7.75
-9.78
-12.28
-15.18
-18.17
-20.83
-22.60
-22.99
-21.70
-18.72
-14.42
-9.39
-4.32
0.25
4.00
6.85
8.83
9.96
10.34
10.04
9.32
8.50
7.96
7.93
8.44
9.29
10.17
10.84
11.20
11.30
11.28
11.25
11.20
11.04
10.62
9.81
8.58
7.01
5.26
3.52
1.94
0.57
-0.62
-1.75
-2.98
-4.41
-6.14
-8.15
-10.41
-12.82
-15.26
-17.55
-19.38
-20.41
-20.25
-18.65
-15.60
-11.41
-6.61
-1.82
2.49
6.04
8.80
10.82
12.15
12.79
12.78
12.20
11.29
10.38
9.78
9.73
10.26
11.19
12.22
13.01
13.31
13.01
12.22
11.15
10.01
8.98
8.06
7.15
6.14
4.95
3.64
2.35
1.21
0.28
-0.48
-1.24
-2.16
-3.34
-4.79
-6.48
-8.39
-10.52
-12.86
-15.27
-17.37
-18.63
-18.52
-16.74
-13.38
-8.95
-4.15
0.36
4.17
7.19
9.48
11.15
12.24
12.74
12.61
11.97
11.04
10.12
9.49
9.30
9.52
9.98
10.44
10.71
10.71
10.44
10.01
9.49
8.93
8.34
7.69
6.94
6.03
4.89
3.52
1.94
0.30
-1.25
-2.57
-3.60
-4.46
-5.35
-6.46
-7.92
-9.74
-11.86
-14.17
-16.49
-18.55
-19.95
-20.22
-19.01
-16.23
-12.16
-7.35
-2.45
1.99
5.65
8.42
10.31
11.36
11.61
11.10
10.06
8.79
7.69
7.05
6.98
7.41
8.09
8.78
9.27
9.47
9.37
9.00
8.38
7.50
6.35
4.93
3.26
1.43
-0.44
-2.19
-3.72
-4.95
-5.91
-6.65
-7.32
-8.01
-8.86
-9.94
-11.32
-13.00
-14.82
-16.52
-17.68
-17.90
-16.88
-14.58
-11.23
-7.23
-3.09
0.77
4.08
6.68
8.54
9.69
10.18
10.13
9.69
9.00
8.28
7.68
7.32
7.23
7.37
7.66
7.95
8.14
8.14
7.97
7.65
7.20
6.62
5.86
4.88
3.65
2.19
0.54
-1.23
-3.05
-4.82
-6.44
-7.85
-9.03
-10.04
-10.99
-12.05
-13.37
-14.97
-16.78
-18.54
-19.91
-20.49
-20.00
-18.26
-15.34
-11.46
-7.03
-2.52
1.62
5.03
7.53
9.11
9.88
10.01
9.67
9.00
8.13
7.23
6.46
5.99
5.89
6.12
6.52
6.91
7.11
7.04
6.71
6.18
5.53
4.81
3.99
3.04
1.90
0.60
-0.78
-2.11
-3.29
-4.32
-5.28
-6.29
-7.45
-8.77
-10.22
-11.79
-13.53
-15.52
-17.83
-20.30
-22.56
-24.03
-24.15
-22.60
-19.47
-15.24
-10.64
-6.32
-2.66
0.26
2.62
4.58
6.17
7.30
7.85
7.85
7.49
7.08
6.88
7.01
7.40
7.93
8.43
8.80
8.98
8.91
8.55
7.87
6.95
5.94
4.99
4.18
3.46
2.67
1.65
0.32
-1.30
-3.06
-4.80
-6.39
-7.78
-9.03
-10.22
-11.48
-12.92
-14.58
-16.50
-18.63
-20.89
-23.07
-24.88
-25.97
-25.98
-24.62
-21.83
-17.77
-12.92
-7.88
-3.26
0.49
3.18
4.87
5.82
6.30
6.56
6.72
6.86
7.04
7.33
7.83
8.58
9.52
10.50
11.34
11.87
12.02
11.82
11.34
10.65
9.75
8.58
7.15
5.51
3.82
2.23
0.88
-0.26
-1.31
-2.44
-3.78
-5.33
-7.00
-8.63
-10.07
-11.31
-12.46
-13.76
-15.43
-17.54
-19.91
-22.07
-23.43
-23.44
-21.83
-18.69
-14.46
-9.75
-5.11
-0.95
2.55
5.30
7.29
8.52
9.05
9.03
8.72
8.43
8.42
8.82
9.59
10.58
11.56
12.37
12.90
13.16
13.17
12.94
12.48
11.77
10.82
9.72
8.54
7.36
6.20
5.04
3.79
2.41
0.90
-0.67
-2.21
-3.62
-4.89
-6.05
-7.19
-8.43
-9.90
-11.68
-13.77
-15.99
-18.01
-19.34
-19.49
-18.11
-15.15
-10.82
-5.63
-0.17
5.01
9.48
13.04
15.59
17.13
17.71
17.47
16.63
15.51
14.47
13.80
13.65
13.98
14.57
15.14
15.43
15.30
14.73
13.84
12.78
11.66
10.55
9.43
8.20
6.80
5.17
3.37
1.51
-0.24
-1.73
-2.96
-4.05
-5.26
-6.86
-9.03
-11.73
-14.69
-17.45
-19.51
-20.41
-19.90
-17.92
-14.67
-10.51
-5.86
-1.19
3.17
6.95
10.03
12.32
13.80
14.49
14.54
14.16
13.63
13.20
12.98
12.95
12.99
12.97
12.83
12.57
12.22
11.82
11.36
10.82
10.14
9.30
8.28
7.06
5.63
4.03
2.32
0.63
-0.95
-2.41
-3.84
-5.40
-7.30
-9.66
-12.47
-15.59
-18.75
-21.60
-23.69
-24.64
-24.10
-21.94
-18.30
-13.57
-8.33
-3.18
1.43
5.30
8.41
10.80
12.52
13.53
13.78
13.38
12.55
11.69
11.17
11.19
11.72
12.50
13.20
13.56
13.48
13.05
12.36
11.51
10.47
9.15
7.50
5.52
3.35
1.15
-0.88
-2.64
-4.12
-5.41
-6.67
-8.05
-9.67
-11.61
-13.89
-16.45
-19.09
-21.44
-23.00
-23.29
-22.03
-19.26
-15.31
-10.71
-5.95
-1.40
2.77
6.47
9.58
11.92
13.32
13.76
13.42
12.64
11.80
11.18
10.89
10.88
11.04
11.24
11.41
11.48
11.41
11.16
10.75
10.17
9.46
8.62
7.65
6.57
5.34
3.98
2.49
0.92
-0.70
-2.36
-4.00
-5.61
-7.13
-8.56
-9.95
-11.46
-13.30
-15.64
-18.48
-21.51
-24.14
-25.65
-25.40
-23.05
-18.77
-13.12
-6.85
-0.71
4.76
9.26
12.73
15.22
16.83
17.69
17.97
17.81
17.37
16.81
16.26
15.81
15.52
15.42
15.50
15.72
16.02
16.28
16.38
16.15
15.43
14.13
12.23
9.87
7.28
4.69
2.27
0.12
-1.79
-3.54
-5.24
-7.02
-8.97
-11.14
-13.51
-15.97
-18.41
-20.80
-23.25
-25.96
-29.15
-32.78
-36.54
-39.77
-41.79
-42.05
-40.40
-37.14
-32.87
-28.27
-23.86
-19.93
-16.55
-13.64
-11.08
-8.70
-6.32
-3.67
-0.51
3.33
7.92
13.14
18.78
24.52
30.01
34.83
38.65
41.25
42.60
42.85
42.25
41.01
39.25
36.98
34.20
31.01
27.61
24.24
21.12
18.27
15.62
12.95
10.12
7.11
4.01
0.93
-2.04
-4.93
-7.85
-10.83
-13.75
-16.26
-17.86
-18.08
-16.64
-13.62
-9.44
-4.71
-0.03
4.12
7.54
10.14
11.93
12.91
13.10
12.59
11.61
10.53
9.74
9.53
10.00
11.00
12.19
13.18
13.64
13.47
12.72
11.62
10.41
9.28
8.28
7.30
6.20
4.83
3.19
1.35
-0.52
-2.26
-3.79
-5.11
-6.30
-7.51
-8.84
-10.42
-12.31
-14.49
-16.85
-19.16
-21.08
-22.20
-22.16
-20.76
-17.98
-14.04
-9.30
-4.23
0.69
5.07
8.62
11.20
12.80
13.52
13.54
13.04
12.23
11.36
10.66
10.32
10.45
10.98
11.70
12.32
12.57
12.36
11.74
10.90
10.00
9.12
8.18
6.99
5.42
3.39
0.99
-1.56
-4.01
-6.20
-8.03
-9.56
-10.93
-12.30
-13.83
-15.60
-17.60
-19.68
-21.54
-22.76
-22.89
-21.60
-18.84
-14.89
-10.28
-5.60
-1.32
2.33
5.32
7.71
9.54
10.79
11.42
11.46
11.02
10.32
9.59
9.01
8.65
8.54
8.63
8.87
9.16
9.43
9.53
9.40
8.98
8.27
7.31
6.15
4.82
3.36
1.80
0.19
-1.44
-3.01
-4.49
-5.83
-7.01
-8.05
-9.05
-10.15
-11.54
-13.38
-15.64
-18.10
-20.31
-21.71
-21.81
-20.37
-17.49
-13.57
-9.18
-4.86
-0.98
2.34
5.13
7.48
9.37
10.68
11.30
11.19
10.51
9.60
8.86
8.56
8.78
9.35
9.97
10.40
10.51
10.31
9.89
9.29
8.48
7.44
6.16
4.70
3.19
1.75
0.42
-0.82
-2.03
-3.28
-4.59
-5.94
-7.32
-8.72
-10.17
-11.72
-13.41
-15.24
-17.16
-19.01
-20.51
-21.29
-20.97
-19.27
-16.23
-12.14
-7.53
-2.95
1.15
4.53
7.15
9.03
10.20
10.66
10.47
9.78
8.89
8.16
7.84
7.99
8.48
9.03
9.34
9.29
8.87
8.24
7.60
7.09
6.73
6.40
5.93
5.10
3.85
2.20
0.36
-1.41
-2.88
-3.93
-4.63
-5.10
-5.55
-6.12
-6.95
-8.10
-9.59
-11.27
-12.80
-13.70
-13.51
-11.92
-8.99
-5.06
-0.66
3.68
7.61
10.95
13.64
15.63
16.86
17.30
17.00
16.09
14.79
13.25
11.58
9.82
8.03
6.31
4.75
3.41
2.23
1.05
-0.32
-1.98
-3.90
-5.94
-7.91
-9.68
-11.27
-12.75
-14.19
-15.56
-16.71
-17.39
-17.39
-16.58
-15.02
-12.99
-10.82
-8.81
-6.96
-4.98
-2.43
1.08
5.65
11.00
16.60
21.90
26.55
30.44
33.60
36.04
37.65
38.25
37.73
36.16
33.82
31.15
28.52
26.13
23.93
21.68
19.11
16.03
12.39
8.35
4.13
-0.05
-4.08
-8.01
-11.98
-16.12
-20.47
-24.93
-29.23
-33.07
-36.14
-38.27
-39.46
-39.88
-39.81
-39.59
-39.53
-39.89
-40.92
-42.66
-44.99
-47.44
-49.27
-49.61
-47.83
-43.75
-37.78
-30.75
-23.58
-17.01
-11.44
-6.97
-3.58
-1.27
-0.07
0.09
-0.55
-1.53
-2.31
-2.44
-1.68
-0.08
2.14
4.66
7.21
9.56
11.60
13.27
14.58
15.57
16.24
16.58
16.52
16.03
15.08
13.78
12.25
10.62
8.97
7.27
5.42
3.29
0.78
-2.14
-5.40
-8.87
-12.31
-15.37
-17.70
-18.92
-18.82
-17.36
-14.80
-11.53
-8.08
-4.89
-2.24
-0.21
1.28
2.37
3.18
3.76
4.16
4.40
4.56
4.73
4.94
5.20
5.45
5.63
5.73
5.82
5.98
6.25
6.59
6.88
6.99
6.86
6.49
6.01
5.49
4.97
4.43
3.84
3.18
2.53
1.98
1.64
1.49
1.39
1.11
0.41
-0.81
-2.40
-3.97
-5.02
-5.10
-4.02
-1.89
0.94
4.04
7.06
9.82
12.26
14.33
15.90
16.82
16.96
16.31
15.08
13.57
12.11
10.89
9.93
9.14
8.37
7.51
6.57
5.64
4.84
4.31
4.05
4.03
4.09
4.09
3.87
3.36
2.58
1.66
0.81
0.26
0.26
0.92
2.25
4.06
6.03
7.78
8.96
9.40
9.11
8.31
7.36
6.64
6.50
7.19
8.80
11.25
14.34
17.67
20.83
23.36
24.98
25.51
24.93
23.23
20.39
16.40
11.40
5.79
0.20
-4.65
-8.27
-10.47
-11.48
-11.73
-11.64
-11.46
-11.24
-10.93
-10.51
-10.03
-9.58
-9.15
-8.75
-8.35
-8.04
-7.98
-8.34
-9.25
-10.63
-12.30
-13.99
-15.51
-16.82
-18.01
-19.24
-20.67
-22.34
-24.17
-25.97
-27.45
-28.27
-28.07
-26.62
-23.93
-20.20
-15.90
-11.55
-7.61
-4.30
-1.68
0.34
1.87
2.94
3.60
3.88
3.89
3.71
3.45
3.15
2.80
2.38
1.90
1.34
0.68
-0.14
-1.19
-2.49
-3.93
-5.38
-6.66
-7.67
-8.40
-8.92
-9.39
-9.93
-10.60
-11.38
-12.23
-13.07
-13.87
-14.61
-15.29
-15.90
-16.45
-16.92
-17.25
-17.34
-16.96
-15.76
-13.34
-9.37
-3.69
3.56
11.98
20.94
29.66
37.44
43.69
48.06
50.48
51.18
50.59
49.19
47.44
45.62
43.83
42.06
40.19
38.09
35.59
32.50
28.66
24.07
18.93
13.63
8.69
4.54
1.34
-1.04
-3.00
-4.97
-7.30
-10.07
-13.21
-16.56
-20.05
-23.70
-27.56
-31.60
-35.58
-39.20
-42.23
-44.66
-46.68
-48.51
-50.15
-51.23
-51.15
-49.35
-45.67
-40.49
-34.60
-28.89
-23.99
-20.11
-17.05
-14.49
-12.17
-10.06
-8.30
-7.04
-6.32
-5.95
-5.63
-5.01
-3.89
-2.25
-0.35
1.44
2.73
3.29
3.16
2.59
2.02
1.84
2.30
3.39
4.91
6.51
7.86
8.74
9.04
8.81
8.09
6.96
5.42
3.48
1.18
-1.36
-4.01
-6.65
-9.19
-11.59
-13.75
-15.46
-16.38
-16.14
-14.52
-11.55
-7.59
-3.23
0.89
4.30
6.77
8.32
9.12
9.40
9.36
9.16
8.92
8.76
8.78
9.07
9.65
10.47
11.42
12.36
13.13
13.68
13.99
14.13
14.17
14.12
13.93
13.49
12.71
11.55
10.07
8.47
6.94
5.64
4.62
3.81
3.00
1.95
0.47
-1.54
-4.05
-6.93
-9.98
-12.99
-15.70
-17.87
-19.16
-19.24
-17.84
-14.92
-10.76
-5.88
-0.97
3.44
7.08
10.02
12.52
14.82
16.99
18.91
20.38
21.24
21.52
21.34
20.92
20.43
19.95
19.47
18.91
18.21
17.35
16.40
15.41
14.42
13.42
12.29
10.89
9.12
6.99
4.66
2.37
0.37
-1.18
-2.28
-3.05
-3.64
-4.23
-4.96
-5.93
-7.25
-8.86
-10.64
-12.27
-13.41
-13.71
-13.04
-11.43
-9.10
-6.35
-3.46
-0.68
1.84
3.95
5.51
6.43
6.73
6.54
6.04
5.42
4.81
4.25
3.72
3.18
2.60
2.02
1.48
1.00
0.60
0.23
-0.17
-0.65
-1.19
-1.80
-2.49
-3.25
-4.13
-5.12
-6.19
-7.22
-8.15
-8.91
-9.50
-10.02
-10.61
-11.41
-12.45
-13.64
-14.75
-15.48
-15.55
-14.80
-13.22
-10.94
-8.19
-5.24
-2.33
0.33
2.55
4.17
5.09
5.32
4.99
4.30
3.49
2.73
2.10
1.60
1.20
0.84
0.49
0.10
-0.36
-0.93
-1.70
-2.80
-4.39
-6.63
-9.63
-13.32
-17.46
-21.60
-25.27
-28.09
-29.92
-30.82
-30.97
-30.56
-29.63
-28.10
-25.90
-22.97
-19.34
-15.10
-10.31
-5.03
0.68
6.66
12.63
18.20
22.96
26.61
29.05
30.34
30.66
30.22
29.16
27.59
25.64
23.52
21.52
19.92
18.92
18.56
18.63
18.82
18.84
18.50
17.81
16.87
15.82
14.74
13.61
12.37
10.96
9.39
7.73
6.09
4.58
3.25
2.08
0.99
-0.11
-1.32
-2.68
-4.12
-5.42
-6.29
-6.38
-5.40
-3.28
-0.18
3.53
7.39
11.00
14.15
16.87
19.36
21.78
24.21
26.51
28.42
29.67
30.11
29.73
28.64
27.06
25.21
23.44
22.16
21.82
22.58
24.17
25.75
26.16
24.32
19.70
12.57
3.91
-4.94
-12.76
-18.77
-22.68
-24.66
-25.16
-24.73
-23.95
-23.43
-23.66
-24.96
-27.33
-30.38
-33.38
-35.40
-35.58
-33.41
-28.94
-22.75
-15.75
-8.84
-2.67
2.48
6.66
9.96
12.44
13.99
14.46
13.76
11.99
9.48
6.72
4.23
2.36
1.21
0.63
0.27
-0.18
-0.89
-1.81
-2.70
-3.31
-3.50
-3.34
-3.06
-2.92
-3.13
-3.74
-4.65
-5.70
-6.73
-7.69
-8.64
-9.77
-11.25
-13.21
-15.62
-18.32
-21.07
-23.65
-25.85
-27.47
-28.26
-27.95
-26.27
-23.15
-18.78
-13.63
-8.40
-3.73
-0.06
2.52
4.15
5.13
5.73
6.11
6.34
6.45
6.52
6.70
7.14
7.92
8.96
10.07
10.95
11.34
11.15
10.44
9.42
8.35
7.40
6.66
6.04
5.42
4.68
3.72
2.52
1.12
-0.38
-1.88
-3.28
-4.50
-5.55
-6.49
-7.42
-8.47
-9.79
-11.48
-13.58
-16.01
-18.52
-20.68
-21.92
-21.73
-19.85
-16.37
-11.79
-6.78
-2.03
2.02
5.22
7.69
9.64
11.28
12.73
13.98
15.01
15.82
16.43
16.93
17.43
17.95
18.44
18.75
18.73
18.28
17.46
16.45
15.50
14.78
14.32
13.98
13.53
12.76
11.61
10.16
8.55
6.93
5.34
3.79
2.29
0.91
-0.26
-1.18
-1.89
-2.57
-3.44
-4.72
-6.43
-8.45
-10.46
-12.06
-12.84
-12.46
-10.80
-7.97
-4.26
-0.11
4.07
7.96
11.42
14.41
16.91
18.87
20.20
20.90
21.11
21.16
21.42
22.22
23.64
25.50
27.42
28.89
29.45
28.79
26.79
23.54
19.30
14.43
9.34
4.39
-0.17
-4.21
-7.73
-10.80
-13.50
-15.94
-18.15
-20.18
-21.99
-23.50
-24.58
-25.07
-24.92
-24.21
-23.14
-22.04
-21.19
-20.63
-20.18
-19.39
-17.74
-14.83
-10.54
-5.10
0.96
6.96
12.31
16.58
19.66
21.63
22.70
23.14
23.15
22.84
22.28
21.51
20.54
19.43
18.24
17.04
15.87
14.71
13.45
11.95
10.13
7.99
5.68
3.40
1.32
-0.50
-2.14
-3.77
-5.55
-7.62
-10.01
-12.63
-15.32
-17.85
-19.99
-21.64
-22.79
-23.62
-24.36
-25.19
-26.22
-27.43
-28.67
-29.76
-30.42
-30.36
-29.32
-27.17
-23.99
-20.09
-15.93
-12.00
-8.62
-5.89
-3.75
-2.00
-0.53
0.73
1.73
2.39
2.67
2.65
2.49
2.42
2.66
3.33
4.41
5.73
7.04
8.10
8.70
8.80
8.51
8.05
7.67
7.54
7.68
8.05
8.51
8.98
9.39
9.64
9.60
9.09
7.91
5.98
3.34
0.20
-3.16
-6.41
-9.28
-11.47
-12.76
-12.97
-12.10
-10.34
-8.11
-5.91
-4.21
-3.30
-3.19
-3.69
-4.48
-5.23
-5.77
-6.09
-6.30
-6.55
-6.89
-7.22
-7.37
-7.16
-6.52
-5.57
-4.52
-3.63
-3.09
-2.96
-3.24
-3.84
-4.62
-5.42
-6.10
-6.59
-6.92
-7.22
-7.66
-8.35
-9.31
-10.38
-11.30
-11.85
-11.90
-11.58
-11.19
-11.09
-11.52
-12.41
-13.41
-13.95
-13.56
-12.00
-9.43
-6.24
-2.95
0.03
2.49
4.36
5.70
6.63
7.21
7.53
7.69
7.81
8.04
8.52
9.33
10.47
11.86
13.30
14.59
15.55
16.09
16.26
16.26
16.28
16.48
16.84
17.20
17.29
16.90
15.92
14.43
12.56
10.44
8.14
5.62
2.89
0.00
-2.81
-5.31
-7.27
-8.56
-9.16
-9.07
-8.26
-6.69
-4.36
-1.44
1.79
4.98
7.85
10.28
12.33
14.16
15.96
17.87
19.92
22.10
24.41
26.86
29.38
31.82
33.97
35.55
36.38
36.41
35.68
34.30
32.36
29.85
26.69
22.79
18.04
12.45
6.17
-0.53
-7.27
-13.68
-19.48
-24.60
-29.15
-33.31
-37.19
-40.74
-43.80
-46.14
-47.66
-48.40
-48.44
-47.86
-46.64
-44.71
-42.05
-38.78
-35.21
-31.68
-28.52
-25.87
-23.72
-21.88
-20.12
-18.28
-16.24
-14.01
-11.66
-9.28
-6.97
-4.82
-2.87
-1.18
0.24
1.37
2.22
2.82
3.26
3.66
4.21
5.01
6.11
7.42
8.80
10.05
11.03
11.68
12.02
12.11
12.02
11.75
11.28
10.60
9.70
8.64
7.49
6.30
5.11
3.89
2.61
1.20
-0.42
-2.37
-4.74
-7.55
-10.68
-13.83
-16.54
-18.35
-18.96
-18.36
-16.86
-14.93
-12.98
-11.27
-9.82
-8.57
-7.42
-6.41
-5.57
-4.92
-4.37
-3.77
-2.98
-1.96
-0.82
0.23
1.00
1.43
1.56
1.53
1.44
1.29
0.97
0.35
-0.72
-2.25
-4.17
-6.27
-8.34
-10.17
-11.65
-12.78
-13.69
-14.57
-15.68
-17.18
-19.16
-21.50
-23.88
-25.83
-26.80
-26.32
-24.14
-20.29
-15.00
-8.65
-1.57
6.07
14.18
22.69
31.42
40.02
48.00
54.86
60.16
63.62
65.15
64.82
62.91
59.85
56.13
52.26
48.53
44.93
41.10
36.50
30.63
23.30
14.75
5.56
-3.48
-11.66
-18.53
-23.90
-27.82
-30.43
-31.97
-32.67
-32.86
-32.87
-33.04
-33.55
-34.36
-35.14
-35.36
-34.46
-32.05
-28.11
-22.97
-17.25
-11.67
-6.83
-3.06
-0.41
1.26
2.23
2.71
2.83
2.63
2.13
1.41
0.57
-0.25
-0.89
-1.30
-1.47
-1.46
-1.34
-1.16
-0.94
-0.71
-0.49
-0.37
-0.46
-0.85
-1.55
-2.51
-3.61
-4.72
-5.73
-6.61
-7.37
-8.07
-8.83
-9.74
-10.91
-12.43
-14.33
-16.56
-18.93
-21.07
-22.50
-22.71
-21.36
-18.41
-14.19
-9.30
-4.37
0.11
3.94
7.15
9.88
12.22
14.14
15.59
16.56
17.13
17.51
17.89
18.39
18.99
19.57
20.03
20.26
20.28
20.16
19.97
19.77
19.55
19.26
18.80
18.09
17.10
15.82
14.33
12.74
11.18
9.76
8.54
7.46
6.39
5.16
3.59
1.57
-0.92
-3.78
-6.81
-9.66
-11.87
-12.97
-12.61
-10.74
-7.67
-3.97
-0.26
3.06
5.91
8.44
10.83
13.08
14.98
16.23
16.64
16.33
15.66
15.07
14.84
14.98
15.32
15.60
15.69
15.60
15.47
15.38
15.31
15.14
14.70
13.86
12.60
11.01
9.24
7.42
5.62
3.89
2.21
0.60
-0.95
-2.46
-3.96
-5.53
-7.25
-9.18
-11.35
-13.68
-16.01
-18.05
-19.39
-19.64
-18.44
-15.74
-11.75
-6.98
-2.05
2.43
6.13
8.91
10.85
12.11
12.78
12.98
12.78
12.31
11.75
11.30
11.11
11.22
11.56
11.96
12.26
12.36
12.25
11.97
11.59
11.11
10.47
9.60
8.43
6.96
5.24
3.36
1.44
-0.42
-2.13
-3.67
-5.06
-6.39
-7.79
-9.40
-11.30
-13.48
-15.82
-18.08
-19.91
-20.90
-20.65
-18.95
-15.82
-11.59
-6.84
-2.15
2.01
5.44
8.16
10.31
11.99
13.18
13.85
13.95
13.59
13.04
12.57
12.44
12.71
13.25
13.82
14.14
14.06
13.58
12.90
12.23
11.77
11.50
11.27
10.75
9.68
7.93
5.64
3.16
0.91
-0.77
-1.84
-2.48
-3.07
-3.96
-5.37
-7.32
-9.67
-12.19
-14.60
-16.52
-17.51
-17.13
-15.11
-11.46
-6.62
-1.30
3.73
7.87
10.89
12.89
14.17
15.03
15.64
16.08
16.39
16.66
17.07
17.83
19.07
20.77
22.72
24.60
26.03
26.76
26.70
25.92
24.63
23.04
21.23
19.17
16.67
13.55
9.69
5.20
0.35
-4.51
-9.07
-13.19
-16.88
-20.26
-23.47
-26.65
-29.86
-33.10
-36.29
-39.24
-41.61
-42.96
-42.88
-41.14
-37.80
-33.24
-28.03
-22.74
-17.82
-13.50
-9.83
-6.78
-4.34
-2.47
-1.15
-0.27
0.32
0.88
1.63
2.78
4.44
6.60
9.18
11.99
14.77
17.19
18.95
19.82
19.70
18.63
16.78
14.36
11.54
8.46
5.15
1.69
-1.84
-5.36
-8.79
-12.12
-15.41
-18.78
-22.31
-25.98
-29.60
-32.80
-35.11
-36.16
-35.72
-33.75
-30.40
-25.94
-20.70
-15.08
-9.57
-4.67
-0.82
1.67
2.78
2.75
2.00
1.00
0.14
-0.30
-0.19
0.47
1.56
2.90
4.23
5.39
6.29
6.96
7.45
7.78
7.83
7.44
6.45
4.85
2.79
0.56
-1.57
-3.36
-4.74
-5.72
-6.36
-6.82
-7.30
-8.00
-9.04
-10.36
-11.60
-12.22
-11.65
-9.57
-6.04
-1.46
3.57
8.46
12.79
16.36
19.11
21.07
22.29
22.85
22.86
22.52
22.04
21.63
21.47
21.61
22.00
22.50
22.97
23.28
23.36
23.24
22.93
22.44
21.66
20.47
18.71
16.34
13.42
10.11
6.65
3.30
0.24
-2.41
-4.67
-6.67
-8.68
-11.02
-13.97
-17.61
-21.72
-25.80
-29.17
-31.21
-31.59
-30.35
-27.82
-24.53
-20.94
-17.37
-14.00
-10.93
-8.32
-6.31
-5.01
-4.36
-4.11
-3.90
-3.42
-2.49
-1.17
0.36
1.89
3.27
4.48
5.52
6.41
7.07
7.36
7.12
6.26
4.84
3.05
1.14
-0.66
-2.19
-3.44
-4.48
-5.47
-6.61
-8.09
-10.02
-12.38
-14.93
-17.25
-18.75
-18.92
-17.50
-14.60
-10.66
-6.30
-2.10
1.60
4.70
7.28
9.42
11.14
12.33
12.92
12.90
12.45
11.84
11.36
11.16
11.27
11.56
11.89
12.14
12.25
12.20
11.99
11.54
10.79
9.71
8.33
6.71
4.94
3.10
1.25
-0.55
-2.27
-3.90
-5.52
-7.29
-9.38
-11.87
-14.61
-17.23
-19.16
-19.88
-19.04
-16.66
-13.09
-8.90
-4.72
-1.03
1.92
4.11
5.67
6.78
7.55
8.01
8.15
7.98
7.57
7.08
6.67
6.45
6.43
6.59
6.80
6.97
7.01
6.85
6.47
5.86
4.99
3.80
2.24
0.31
-1.87
-4.06
-5.99
-7.47
-8.47
-9.20
-10.00
-11.22
-13.05
-15.48
-18.22
-20.83
-22.75
-23.47
-22.68
-20.34
-16.77
-12.48
-8.07
-3.98
-0.46
2.47
4.85
6.73
8.11
8.97
9.38
9.45
9.40
9.43
9.66
10.11
10.68
11.22
11.59
11.70
11.54
11.16
10.60
9.92
9.09
8.13
7.02
5.79
4.50
3.20
1.92
0.64
-0.66
-2.01
-3.42
-4.94
-6.64
-8.63
-11.00
-13.71
-16.53
-19.07
-20.82
-21.38
-20.54
-18.45
-15.43
-11.98
-8.47
-5.15
-2.06
0.83
3.50
5.90
7.89
9.34
10.21
10.59
10.70
10.76
11.00
11.55
12.42
13.49
14.62
15.59
16.25
16.51
16.32
15.75
14.86
13.72
12.42
11.03
9.62
8.29
7.12
6.21
5.61
5.34
5.37
5.61
5.91
6.12
5.99
5.33
3.99
2.00
-0.35
-2.54
-3.94
-4.06
-2.69
-0.03
3.41
6.94
9.94
11.97
12.85
12.61
11.35
9.27
6.54
3.35
-0.10
-3.58
-6.84
-9.66
-11.83
-13.29
-14.11
-14.46
-14.60
-14.71
-14.90
-15.19
-15.57
-16.06
-16.74
-17.66
-18.86
-20.23
-21.53
-22.40
-22.52
-21.72
-20.06
-17.79
-15.29
-12.90
-10.78
-8.84
-6.86
-4.62
-2.05
0.66
3.13
5.03
6.22
6.91
7.56
8.72
10.78
13.81
17.50
21.27
24.34
25.83
24.83
20.54
12.54
0.97
-13.32
-28.77
-43.52
-55.74
-64.11
-67.98
-67.38
-62.86
-55.25
-45.40
-34.01
-21.60
-8.54
4.88
18.26
31.13
42.86
52.82
60.48
65.53
67.89
67.70
65.28
61.09
55.66
49.59
43.41
37.52
32.07
26.99
22.08
17.17
12.26
7.58
3.55
0.62
-0.86
-0.79
0.66
3.18
6.39
9.94
13.57
17.03
20.10
22.59
24.34
25.33
25.56
25.15
24.16
22.61
20.44
17.56
13.89
9.46
4.45
-0.77
-5.81
-10.31
-14.10
-17.24
-19.91
-22.29
-24.47
-26.35
-27.72
-28.33
-28.00
-26.61
-24.15
-20.71
-16.49
-11.88
-7.37
-3.60
-1.10
-0.26
-1.15
-3.55
-7.01
-10.85
-14.42
-17.19
-18.89
-19.53
-19.35
-18.62
-17.52
-16.06
-14.11
-11.55
-8.33
-4.54
-0.35
4.07
8.64
13.35
18.09
22.66
26.68
29.71
31.35
31.46
30.16
27.82
24.86
21.59
18.11
14.33
10.14
5.60
0.97
-3.32
-6.84
-9.31
-10.73
-11.33
-11.44
-11.33
-11.13
-10.83
-10.30
-9.39
-8.06
-6.40
-4.62
-3.02
-1.84
-1.16
-0.87
-0.74
-0.47
0.12
1.02
2.02
2.84
3.20
2.99
2.30
1.36
0.51
0.01
-0.02
0.36
0.94
1.49
1.95
2.47
3.43
5.32
8.51
13.10
18.88
25.42
32.22
38.90
45.37
51.72
58.25
65.13
72.39
79.69
86.35
91.43
93.91
93.00
88.38
80.29
69.47
56.95
43.72
30.52
17.95
6.47
-3.45
-11.39
-17.15
-21.01
-23.81
-26.82
-31.45
-38.83
-49.36
-62.54
-76.93
-90.52
-101.12
-106.92
-106.82
-100.76
-89.74
-75.66
-60.93
-47.96
-38.46
-33.07
-31.14
-31.16
-31.46
-30.90
-29.36
-27.60
-26.62
-27.08
-28.80
-30.98
-32.62
-33.10
-32.42
-31.17
-30.12
-29.86
-30.51
-31.78
-33.28
-34.75
-36.34
-38.47
-41.50
-45.30
-48.96
-51.08
-50.30
-46.07
-38.95
-30.50
-22.52
-16.29
-11.99
-8.86
-5.75
-1.88
2.75
7.42
11.24
13.72
15.04
15.91
17.07
18.95
21.48
24.24
26.76
28.80
30.39
31.68
32.72
33.35
33.28
32.21
30.06
26.95
23.20
19.24
15.54
12.43
10.01
7.97
5.58
1.96
-3.48
-10.78
-19.29
-27.98
-35.89
-42.47
-47.65
-51.59
-54.30
-55.49
-54.76
-51.89
-47.20
-41.60
-36.15
-31.59
-28.00
-24.86
-21.40
-17.17
-12.24
-7.22
-2.86
0.34
2.30
3.30
3.67
3.66
3.27
2.49
1.37
0.19
-0.72
-1.15
-1.18
-1.16
-1.50
-2.40
-3.66
-4.75
-5.07
-4.29
-2.49
-0.13
2.38
4.95
8.01
12.24
18.17
25.65
33.74
40.97
45.83
47.37
45.47
40.85
34.65
28.11
22.17
17.36
13.75
11.06
8.86
6.75
4.55
2.36
0.51
-0.62
-0.83
-0.28
0.48
0.72
-0.18
-2.45
-5.83
-9.73
-13.57
-17.00
-20.02
-22.89
-25.78
-28.69
-31.32
-33.35
-34.64
-35.38
-35.91
-36.49
-37.03
-36.97
-35.55
-32.08
-26.32
-18.53
-9.41
0.16
9.41
17.71
24.69
30.05
33.61
35.25
35.00
33.12
30.13
26.70
23.51
21.03
19.36
18.31
17.47
16.46
15.12
13.54
11.99
10.73
9.85
9.24
8.66
7.82
6.61
5.05
3.33
1.66
0.15
-1.24
-2.71
-4.46
-6.60
-9.10
-11.76
-14.28
-16.28
-17.45
-17.56
-16.47
-14.21
-10.99
-7.14
-3.08
0.83
4.32
7.27
9.65
11.46
12.64
13.20
13.16
12.71
12.15
11.81
12.00
12.86
14.33
16.14
17.90
19.26
19.97
19.98
19.45
18.58
17.56
16.49
15.33
14.00
12.42
10.60
8.63
6.65
4.78
3.07
1.43
-0.33
-2.39
-4.89
-7.80
-10.89
-13.84
-16.22
-17.71
-18.09
-17.34
-15.59
-13.03
-9.93
-6.54
-3.05
0.36
3.54
6.34
8.61
10.25
11.20
11.57
11.58
11.54
11.76
12.39
13.41
14.61
15.75
16.65
17.24
17.57
17.72
17.66
17.27
16.40
14.93
12.92
10.60
8.25
6.10
4.25
2.59
0.94
-0.91
-3.07
-5.57
-8.39
-11.50
-14.82
-18.26
-21.55
-24.29
-26.05
-26.50
-25.59
-23.54
-20.75
-17.56
-14.14
-10.39
-6.07
-1.04
4.65
10.65
16.49
21.82
26.60
31.05
35.52
40.32
45.43
50.59
55.34
59.22
61.84
62.94
62.28
59.55
54.45
46.78
36.72
24.90
12.38
0.36
-10.08
-18.27
-24.01
-27.50
-29.17
-29.48
-28.88
-27.88
-27.01
-26.87
-27.88
-30.18
-33.34
-36.54
-38.76
-39.15
-37.40
-33.78
-29.04
-24.01
-19.36
-15.35
-11.95
-9.01
-6.45
-4.22
-2.25
-0.37
1.75
4.27
7.14
9.93
12.10
13.28
13.46
13.03
12.47
12.07
11.75
11.15
9.86
7.72
4.81
1.41
-2.18
-5.74
-9.08
-11.93
-13.95
-14.77
-14.21
-12.35
-9.58
-6.44
-3.47
-1.07
0.52
1.23
1.08
0.21
-1.15
-2.65
-3.85
-4.34
-3.81
-2.15
0.49
3.74
7.14
10.26
12.89
15.03
16.81
18.33
19.52
20.09
19.68
18.05
15.24
11.57
7.58
3.80
0.57
-2.01
-4.03
-5.69
-7.14
-8.42
-9.45
-10.09
-10.20
-9.68
-8.56
-6.93
-4.92
-2.66
-0.26
2.24
4.76
7.17
9.27
10.83
11.63
11.64
11.03
10.15
9.48
9.43
10.16
11.51
13.04
14.23
14.65
14.20
13.04
11.53
9.98
8.53
7.14
5.66
3.98
2.14
0.31
-1.27
-2.43
-3.14
-3.43
-3.37
-2.99
-2.26
-1.18
0.17
1.60
2.84
3.67
3.98
3.84
3.46
3.11
3.01
3.30
3.89
4.64
5.33
5.81
6.06
6.10
6.01
5.76
5.19
4.14
2.55
0.61
-1.28
-2.67
-3.21
-2.84
-1.69
-0.02
1.97
4.14
6.39
8.56
10.43
11.77
12.49
12.68
12.63
12.70
13.11
13.93
14.96
15.94
16.63
16.92
16.83
16.53
16.18
15.85
15.47
14.81
13.61
11.59
8.69
4.98
0.68
-3.95
-8.65
-13.24
-17.59
-21.50
-24.74
-26.93
-27.75
-27.02
-24.78
-21.39
-17.37
-13.22
-9.24
-5.45
-1.63
2.49
7.02
11.74
16.15
19.59
21.52
21.67
20.13
17.26
13.53
9.39
5.10
0.77
-3.54
-7.76
-11.78
-15.35
-18.28
-20.41
-21.76
-22.51
-22.94
-23.29
-23.73
-24.29
-24.93
-25.66
-26.56
-27.82
-29.60
-31.94
-34.61
-37.24
-39.42
-40.92
-41.78
-42.32
-42.96
-44.04
-45.65
-47.56
-49.30
-50.30
-50.04
-48.25
-44.92
-40.33
-34.98
-29.43
-24.18
-19.58
-15.80
-12.86
-10.67
-9.03
-7.61
-5.97
-3.63
-0.20
4.49
10.20
16.37
22.23
27.05
30.39
32.14
32.55
31.99
30.87
29.47
27.93
26.27
24.46
22.42
20.09
17.50
14.76
12.10
9.76
7.91
6.52
5.34
4.00
2.17
-0.27
-3.20
-6.23
-8.91
-10.81
-11.70
-11.57
-10.54
-8.91
-7.04
-5.27
-3.93
-3.21
-3.22
-3.89
-5.12
-6.76
-8.69
-10.81
-12.99
-15.02
-16.64
-17.58
-17.65
-16.84
-15.24
-13.07
-10.54
-7.81
-5.06
-2.45
-0.22
1.36
2.11
2.00
1.17
-0.10
-1.54
-2.96
-4.33
-5.68
-7.06
-8.52
-10.10
-11.86
-13.84
-16.01
-18.17
-19.95
-20.88
-20.56
-18.89
-16.07
-12.61
-9.04
-5.78
-2.98
-0.57
1.66
3.93
6.34
8.88
11.57
14.47
17.86
22.08
27.44
33.95
41.19
48.37
54.53
58.93
61.22
61.55
60.34
58.07
55.05
51.38
47.06
42.13
36.73
31.10
25.46
19.97
14.73
9.79
5.19
0.89
-3.22
-7.31
-11.46
-15.52
-19.14
-21.77
-22.92
-22.37
-20.22
-16.95
-13.13
-9.32
-5.90
-3.05
-0.81
0.84
1.90
2.40
2.36
1.89
1.19
0.56
0.29
0.61
1.58
3.00
4.55
5.90
6.87
7.42
7.69
7.80
7.77
7.54
7.01
6.12
4.94
3.60
2.27
1.04
-0.08
-1.17
-2.33
-3.70
-5.41
-7.57
-10.25
-13.39
-16.77
-19.92
-22.30
-23.35
-22.69
-20.28
-16.44
-11.76
-6.93
-2.53
1.09
3.75
5.50
6.44
6.74
6.60
6.24
5.92
5.81
6.01
6.48
7.08
7.66
8.06
8.20
8.06
7.68
7.16
6.55
5.83
4.86
3.53
1.78
-0.29
-2.43
-4.39
-6.00
-7.29
-8.44
-9.70
-11.26
-13.21
-15.48
-17.88
-20.08
-21.65
-22.12
-21.08
-18.39
-14.18
-8.94
-3.29
2.16
6.95
10.86
13.81
15.81
16.87
17.02
16.40
15.26
14.03
13.10
12.73
12.89
13.33
13.66
13.62
13.11
12.27
11.29
10.24
9.09
7.69
5.92
3.81
1.53
-0.67
-2.61
-4.24
-5.65
-7.01
-8.50
-10.24
-12.28
-14.61
-17.13
-19.65
-21.79
-23.13
-23.21
-21.72
-18.64
-14.20
-8.93
-3.42
1.73
6.08
9.40
11.64
12.93
13.47
13.53
13.35
13.15
13.06
13.14
13.35
13.59
13.73
13.64
13.23
12.49
11.50
10.39
9.31
8.29
7.29
6.17
4.80
3.15
1.29
-0.61
-2.39
-3.97
-5.39
-6.78
-8.32
-10.17
-12.38
-14.88
-17.46
-19.76
-21.32
-21.67
-20.50
-17.75
-13.70
-8.87
-3.89
0.69
4.56
7.65
10.00
11.66
12.64
12.93
12.63
12.03
11.52
11.49
12.11
13.23
14.43
15.25
15.41
14.87
13.82
12.53
11.18
9.76
8.18
6.31
4.15
1.77
-0.66
-2.98
-5.09
-6.94
-8.60
-10.09
-11.49
-12.87
-14.36
-16.10
-18.17
-20.56
-23.03
-25.09
-26.18
-25.78
-23.65
-19.94
-15.15
-9.96
-5.02
-0.76
2.67
5.34
7.39
8.89
9.85
10.27
10.22
9.88
9.51
9.38
9.57
10.01
10.49
10.77
10.76
10.55
10.35
10.40
10.79
11.45
12.24
13.00
13.67
14.32
15.01
15.72
16.22
16.21
15.37
13.53
10.70
7.04
2.75
-2.01
-7.17
-12.67
-18.35
-23.88
-28.79
-32.64
-35.04
-35.90
-35.36
-33.83
-31.79
-29.76
-28.14
-27.22
-27.14
-27.95
-29.61
-32.06
-35.18
-38.84
-42.91
-47.19
-51.45
-55.43
-58.86
-61.50
-63.22
-64.01
-63.91
-63.00
-61.31
-58.87
-55.72
-51.99
-47.91
-43.78
-39.84
-36.22
-32.91
-29.81
-26.85
-23.91
-20.88
-17.53
-13.54
-8.58
-2.45
4.85
13.20
22.45
32.58
43.68
55.86
69.01
82.72
96.20
108.50
118.67
125.94
129.90
130.50
128.09
123.33
117.08
110.26
103.62
97.68
92.66
88.57
85.27
82.56
80.16
77.75
74.90
71.18
66.31
60.21
53.09
45.38
37.65
30.39
23.95
18.45
13.81
9.82
6.30
3.14
0.38
-1.83
-3.44
-4.48
-5.23
-6.01
-7.12
-8.59
-10.21
-11.50
-11.95
-11.12
-8.75
-4.82
0.50
6.82
13.57
20.04
25.51
29.27
30.78
29.69
25.91
19.65
11.46
2.21
-6.91
-14.62
-19.84
-21.89
-20.68
-16.72
-10.95
-4.46
1.77
7.09
11.25
14.38
16.84
18.99
21.13
23.39
25.69
27.75
29.09
29.07
27.09
22.75
16.07
7.58
-1.89
-11.42
-20.31
-28.20
-35.05
-40.88
-45.62
-49.10
-51.17
-51.89
-51.64
-50.94
-50.24
-49.63
-48.75
-47.02
-43.98
-39.58
-34.28
-28.87
-24.11
-20.49
-18.06
-16.59
-15.73
-15.20
-14.86
-14.65
-14.54
-14.46
-14.38
-14.29
-14.18
-14.06
-13.86
-13.49
-12.91
-12.27
-11.92
-12.36
-14.05
-17.18
-21.64
-26.88
-32.03
-36.04
-37.88
-36.87
-32.90
-26.61
-19.23
-12.27
-6.98
-3.96
-3.05
-3.53
-4.60
-5.75
-6.98
-8.53
-10.63
-13.21
-15.89
-18.18
-19.65
-20.05
-19.23
-17.06
-13.34
-8.07
-1.58
5.35
11.68
16.42
18.97
19.32
17.93
15.45
12.47
9.40
6.46
3.78
1.47
-0.43
-1.99
-3.36
-4.69
-6.01
-7.16
-7.90
-7.94
-7.13
-5.50
-3.21
-0.52
2.34
5.24
8.18
11.25
14.52
17.98
21.30
24.02
25.54
25.44
23.65
20.54
16.73
12.88
9.44
6.51
3.93
1.42
-1.22
-4.01
-6.85
-9.58
-12.09
-14.30
-16.18
-17.65
-18.64
-19.12
-19.17
-18.96
-18.71
-18.51
-18.28
-17.75
-16.58
-14.47
-11.37
-7.44
-3.04
1.46
5.67
9.35
12.32
14.52
15.93
16.62
16.71
16.40
15.91
15.50
15.35
15.46
15.70
15.79
15.45
14.52
13.05
11.25
9.38
7.59
5.99
4.56
3.34
2.38
1.76
1.46
1.34
1.25
1.04
0.72
0.36
0.06
-0.22
-0.56
-1.07
-1.70
-2.17
-2.18
-1.48
-0.10
1.67
3.44
4.83
5.70
6.03
5.91
5.38
4.42
3.03
1.26
-0.77
-2.94
-5.12
-7.27
-9.36
-11.36
-13.25
-15.01
-16.68
-18.25
-19.69
-20.85
-21.53
-21.56
-20.92
-19.73
-18.30
-16.90
-15.71
-14.75
-13.92
-13.11
-12.26
-11.42
-10.63
-9.95
-9.37
-8.84
-8.32
-7.79
-7.29
-6.87
-6.53
-6.25
-5.93
-5.53
-5.05
-4.57
-4.16
-3.88
-3.69
-3.48
-3.10
-2.51
-1.80
-1.20
-0.96
-1.21
-1.91
-2.84
-3.68
-4.19
-4.31
-4.13
-3.81
-3.46
-3.06
-2.52
-1.77
-0.87
-0.05
0.47
0.55
0.27
-0.12
-0.34
-0.25
0.09
0.46
0.64
0.58
0.42
0.39
0.68
1.28
2.03
2.67
3.02
3.03
2.82
2.51
2.23
1.95
1.60
1.12
0.57
0.06
-0.28
-0.40
-0.39
-0.42
-0.65
-1.16
-1.87
-2.65
-3.39
-4.05
-4.64
-5.14
-5.48
-5.48
-4.97
-3.92
-2.49
-0.90
0.57
1.80
2.82
3.73
4.62
5.45
6.08
6.32
6.07
5.41
4.56
3.80
3.30
3.09
2.99
2.80
2.43
1.89
1.36
0.94
0.66
0.39
-0.06
-0.80
-1.82
-2.96
-4.02
-4.86
-5.49
-5.99
-6.55
-7.27
-8.16
-9.10
-9.91
-10.38
-10.38
-9.79
-8.65
-7.00
-4.97
-2.69
-0.33
1.90
3.79
5.22
6.13
6.61
6.84
6.99
7.16
7.40
7.66
7.88
8.02
8.07
7.96
7.66
7.08
6.21
5.13
4.01
3.01
2.27
1.74
1.33
0.85
0.18
-0.68
-1.62
-2.50
-3.26
-3.90
-4.53
-5.30
-6.31
-7.58
-9.03
-10.45
-11.57
-12.09
-11.77
-10.44
-8.18
-5.23
-2.02
1.02
3.57
5.52
6.96
8.08
9.02
9.79
10.28
10.38
10.04
9.37
8.58
7.90
7.42
7.11
6.82
6.42
5.81
5.02
4.13
3.19
2.17
1.03
-0.27
-1.66
-2.97
-4.05
-4.85
-5.41
-5.90
-6.45
-7.14
-7.96
-8.86
-9.81
-10.81
-11.85
-12.84
-13.60
-13.86
-13.37
-11.98
-9.72
-6.78
-3.48
-0.14
2.95
5.62
7.83
9.58
10.89
11.78
12.23
12.26
11.96
11.52
11.16
11.06
11.28
11.71
12.13
12.28
12.01
11.31
10.31
9.22
8.17
7.26
6.43
5.62
4.74
3.75
2.62
1.35
-0.03
-1.44
-2.76
-3.90
-4.83
-5.67
-6.61
-7.89
-9.63
-11.76
-14.01
-15.93
-17.04
-16.92
-15.36
-12.42
-8.45
-4.01
0.29
3.93
6.66
8.46
9.52
10.06
10.23
10.12
9.82
9.44
9.15
9.09
9.30
9.65
9.88
9.77
9.18
8.18
6.99
5.84
4.88
4.10
3.34
2.43
1.21
-0.28
-1.92
-3.53
-4.97
-6.19
-7.24
-8.12
-8.88
-9.56
-10.24
-11.09
-12.29
-13.90
-15.78
-17.50
-18.52
-18.36
-16.74
-13.77
-9.84
-5.50
-1.22
2.72
6.21
9.32
12.06
14.36
16.05
16.94
17.01
16.40
15.45
14.53
13.86
13.49
13.23
12.87
12.24
11.40
10.48
9.63
8.89
8.14
7.19
5.83
4.01
1.78
-0.65
-3.08
-5.32
-7.27
-8.94
-10.36
-11.67
-12.94
-14.24
-15.56
-16.87
-18.10
-19.20
-20.09
-20.66
-20.71
-19.96
-18.15
-15.14
-11.04
-6.21
-1.20
3.42
7.23
10.05
11.91
12.97
13.41
13.38
12.96
12.26
11.43
10.71
10.31
10.37
10.82
11.44
11.90
11.97
11.64
11.08
10.59
10.43
10.61
10.92
10.99
10.45
9.13
7.12
4.74
2.34
0.23
-1.48
-2.81
-3.89
-4.87
-5.92
-7.14
-8.66
-10.53
-12.65
-14.74
-16.34
-16.92
-16.05
-13.62
-9.86
-5.36
-0.81
3.13
6.05
7.86
8.69
8.84
8.58
8.17
7.78
7.48
7.36
7.48
7.86
8.56
9.58
10.87
12.26
13.51
14.29
14.40
13.75
12.51
10.95
9.36
7.87
6.39
4.76
2.80
0.54
-1.82
-4.00
-5.80
-7.23
-8.49
-9.82
-11.40
-13.22
-15.08
-16.71
-17.89
-18.45
-18.32
-17.44
-15.75
-13.22
-9.97
-6.24
-2.46
0.95
3.60
5.28
5.98
5.79
4.90
3.53
1.93
0.35
-0.94
-1.76
-2.07
-1.97
-1.69
-1.46
-1.45
-1.71
-2.20
-2.86
-3.60
-4.43
-5.33
-6.36
-7.55
-8.89
-10.34
-11.79
-13.03
-13.78
-13.86
-13.22
-12.08
-10.82
-9.91
-9.65
-10.09
-10.93
-11.68
-11.89
-11.39
-10.28
-8.89
-7.60
-6.61
-5.84
-5.07
-4.02
-2.57
-0.83
0.91
2.33
3.27
3.80
4.14
4.57
5.25
6.11
6.91
7.38
7.34
6.86
6.17
5.56
5.25
5.19
5.20
5.02
4.53
3.78
2.98
2.36
2.04
1.92
1.78
1.32
0.34
-1.18
-3.04
-4.94
-6.58
-7.70
-8.16
-7.90
-6.89
-5.16
-2.76
0.10
3.13
5.97
8.29
9.90
10.78
11.07
10.93
10.48
9.81
8.96
8.04
7.25
6.78
6.75
7.10
7.61
7.97
7.99
7.59
6.89
6.06
5.25
4.47
3.65
2.64
1.38
-0.10
-1.65
-3.14
-4.47
-5.65
-6.80
-8.08
-9.59
-11.34
-13.20
-14.91
-16.15
-16.61
-16.09
-14.60
-12.27
-9.41
-6.32
-3.25
-0.36
2.31
4.72
6.77
8.29
9.17
9.34
8.91
8.14
7.33
6.76
6.58
6.78
7.23
7.74
8.13
8.29
8.20
7.88
7.38
6.71
5.88
4.85
3.61
2.18
0.65
-0.82
-2.08
-3.03
-3.64
-4.07
-4.54
-5.31
-6.60
-8.46
-10.71
-12.97
-14.74
-15.58
-15.22
-13.69
-11.28
-8.41
-5.49
-2.78
-0.40
1.66
3.47
5.07
6.43
7.52
8.27
8.71
8.91
9.00
9.11
9.31
9.58
9.81
9.85
9.63
9.18
8.62
8.11
7.72
7.40
6.98
6.24
5.02
3.34
1.36
-0.62
-2.30
-3.50
-4.20
-4.61
-5.02
-5.73
-6.88
-8.45
-10.23
-11.91
-13.14
-13.59
-13.04
-11.39
-8.73
-5.32
-1.59
2.00
5.07
7.40
8.99
9.96
10.47
10.64
10.56
10.29
9.96
9.71
9.61
9.66
9.72
9.63
9.29
8.75
8.15
7.65
7.32
7.06
6.72
6.15
5.31
4.30
3.25
2.23
1.25
0.25
-0.82
-1.93
-3.03
-4.12
-5.34
-6.90
-9.06
-11.90
-15.24
-18.62
-21.30
-22.54
-21.78
-18.83
-13.98
-7.92
-1.57
4.20
8.79
12.05
14.26
15.94
17.70
19.92
22.68
25.73
28.58
30.71
31.82
31.93
31.33
30.51
29.83
29.44
29.26
29.10
28.87
28.57
28.32
28.17
28.08
27.86
27.37
26.52
25.33
23.66
21.08
16.95
10.60
1.84
-8.78
-20.01
-30.24
-38.10
-42.88
-44.57
-43.67
-40.77
-36.40
-31.04
-25.33
-20.14
-16.50
-15.21
-16.45
-19.59
-23.44
-26.70
-28.57
-29.00
-28.64
-28.49
-29.29
-31.36
-34.52
-38.44
-42.90
-47.99
-54.00
-61.10
-69.20
-77.77
-86.10
-93.41
-99.10
-102.72
-103.93
-102.45
-98.12
-91.01
-81.60
-70.63
-58.83
-46.43
-32.93
-17.37
1.02
22.05
44.17
64.80
81.32
92.21
97.73
99.60
100.05
100.66
101.68
102.22
101.02
97.33
91.31
83.84
75.90
68.14
60.69
53.42
46.27
39.49
33.54
28.78
25.25
22.63
20.44
18.26
15.96
13.64
11.54
9.82
8.45
7.30
6.12
4.80
3.29
1.61
-0.17
-2.10
-4.22
-6.60
-9.19
-11.84
-14.29
-16.34
-17.82
-18.66
-18.85
-18.36
-17.14
-15.16
-12.47
-9.24
-5.79
-2.46
0.41
2.60
4.02
4.72
4.89
4.76
4.62
4.63
4.82
5.12
5.34
5.35
5.08
4.56
3.87
3.05
2.15
1.20
0.29
-0.53
-1.19
-1.68
-2.03
-2.25
-2.38
-2.40
-2.32
-2.14
-1.98
-2.03
-2.55
-3.74
-5.69
-8.26
-11.12
-13.81
-15.81
-16.72
-16.30
-14.59
-11.83
-8.39
-4.72
-1.17
2.02
4.79
7.15
9.16
10.85
12.18
13.14
13.73
14.03
14.15
14.20
14.25
14.31
14.36
14.34
14.23
14.01
13.71
13.37
13.01
12.61
12.12
11.43
10.42
9.02
7.19
4.98
2.46
-0.28
-3.13
-5.98
-8.72
-11.24
-13.51
-15.61
-17.65
-19.77
-21.97
-24.09
-25.75
-26.47
-25.85
-23.67
-20.05
-15.36
-10.19
-5.12
-0.63
2.99
5.63
7.32
8.13
8.18
7.66
6.80
5.89
5.20
4.87
4.86
5.01
5.08
4.88
4.41
3.74
3.03
2.30
1.44
0.30
-1.29
-3.34
-5.73
-8.23
-10.59
-12.62
-14.27
-15.55
-16.62
-17.63
-18.75
-20.12
-21.73
-23.42
-24.90
-25.71
-25.38
-23.59
-20.21
-15.46
-9.82
-3.90
1.78
6.92
11.52
15.70
19.56
23.04
25.93
27.99
29.12
29.40
29.11
28.51
27.80
27.00
26.06
24.92
23.56
22.05
20.43
18.70
16.71
14.29
11.28
7.64
3.51
-0.83
-5.01
-8.75
-11.92
-14.64
-17.17
-19.84
-22.84
-26.23
-29.86
-33.40
-36.48
-38.64
-39.54
-38.97
-37.02
-34.00
-30.39
-26.67
-23.13
-19.87
-16.79
-13.83
-10.94
-8.21
-5.71
-3.43
-1.30
0.75
2.76
4.66
6.37
7.86
9.23
10.56
11.91
13.17
14.09
14.42
13.98
12.75
10.85
8.47
5.82
3.16
0.76
-1.08
-2.13
-2.38
-2.04
-1.52
-1.26
-1.57
-2.43
-3.57
-4.52
-4.79
-4.06
-2.22
0.56
3.95
7.49
10.84
13.77
16.24
18.30
19.97
21.22
21.91
21.96
21.41
20.53
19.74
19.46
19.96
21.22
22.89
24.41
25.23
24.95
23.48
21.03
17.99
14.70
11.39
8.11
4.86
1.71
-1.12
-3.35
-4.80
-5.54
-5.92
-6.46
-7.58
-9.45
-11.89
-14.44
-16.55
-17.69
-17.47
-15.69
-12.35
-7.64
-2.01
3.93
9.51
14.11
17.36
19.15
19.66
19.20
18.10
16.68
15.17
13.73
12.44
11.34
10.34
9.37
8.34
7.24
6.07
4.88
3.67
2.36
0.85
-0.93
-2.93
-5.01
-6.96
-8.66
-10.07
-11.30
-12.49
-13.76
-15.12
-16.54
-17.98
-19.40
-20.79
-22.10
-23.19
-23.82
-23.77
-22.84
-21.04
-18.48
-15.47
-12.30
-9.29
-6.64
-4.48
-2.85
-1.69
-0.87
-0.29
0.15
0.49
0.73
0.88
0.99
1.11
1.34
1.72
2.20
2.72
3.19
3.56
3.88
4.17
4.37
4.37
3.90
2.79
0.99
-1.26
-3.58
-5.54
-6.86
-7.53
-7.82
-8.14
-8.84
-10.10
-11.84
-13.73
-15.31
-16.08
-15.69
-13.99
-11.10
-7.42
-3.44
0.39
3.72
6.39
8.33
9.50
9.94
9.73
9.06
8.23
7.54
7.21
7.23
7.47
7.69
7.74
7.62
7.44
7.31
7.26
7.21
6.99
6.48
5.66
4.65
3.63
2.75
2.04
1.44
0.83
0.14
-0.66
-1.57
-2.59
-3.77
-5.16
-6.73
-8.30
-9.56
-10.23
-10.09
-9.15
-7.64
-5.89
-4.24
-2.87
-1.89
-1.28
-0.97
-0.89
-0.99
-1.25
-1.64
-2.13
-2.66
-3.16
-3.51
-3.66
-3.62
-3.44
-3.25
-3.14
-3.17
-3.37
-3.72
-4.23
-4.88
-5.64
-6.43
-7.20
-7.92
-8.59
-9.32
-10.16
-11.19
-12.41
-13.80
-15.27
-16.70
-17.81
-18.26
-17.70
-15.90
-12.90
-9.01
-4.77
-0.72
2.73
5.41
7.38
8.78
9.78
10.47
10.84
10.85
10.49
9.83
9.04
8.29
7.72
7.37
7.14
6.92
6.62
6.20
5.68
5.05
4.29
3.35
2.22
0.96
-0.34
-1.57
-2.73
-3.83
-4.99
-6.29
-7.79
-9.50
-11.32
-13.06
-14.41
-15.02
-14.57
-12.96
-10.30
-6.93
-3.29
0.26
3.49
6.31
8.63
10.38
11.44
11.80
11.57
11.02
10.48
10.25
10.45
11.00
11.68
12.24
12.49
12.43
12.10
11.65
11.15
10.60
9.93
9.11
8.13
7.04
5.92
4.80
3.65
2.38
0.90
-0.78
-2.51
-4.07
-5.22
-5.89
-6.20
-6.42
-6.88
-7.83
-9.40
-11.51
-13.98
-16.52
-18.79
-20.49
-21.31
-21.13
-20.02
-18.27
-16.30
-14.40
-12.74
-11.22
-9.64
-7.77
-5.58
-3.17
-0.76
1.40
3.17
4.49
5.39
5.96
6.32
6.58
6.83
7.16
7.56
7.99
8.33
8.45
8.24
7.68
6.82
5.74
4.55
3.30
2.00
0.66
-0.75
-2.26
-3.90
-5.73
-7.81
-10.12
-12.53
-14.79
-16.54
-17.41
-17.11
-15.59
-12.98
-9.62
-5.93
-2.29
1.05
3.99
6.49
8.57
10.15
11.13
11.51
11.36
10.95
10.58
10.49
10.75
11.21
11.61
11.73
11.44
10.80
9.96
9.07
8.22
7.41
6.56
5.54
4.35
3.01
1.68
0.52
-0.36
-0.97
-1.52
-2.28
-3.52
-5.35
-7.67
-10.09
-12.16
-13.40
-13.48
-12.31
-9.96
-6.65
-2.67
1.71
6.23
10.67
14.89
18.79
22.38
25.72
28.85
31.72
34.18
36.00
36.99
37.12
36.57
35.66
34.76
34.17
34.02
34.30
34.85
35.39
35.61
35.19
33.93
31.78
28.88
25.49
21.93
18.43
15.15
12.19
9.62
7.49
5.82
4.53
3.51
2.59
1.64
0.60
-0.56
-1.83
-3.22
-4.74
-6.31
-7.80
-9.05
-9.93
-10.38
-10.47
-10.29
-9.92
-9.39
-8.74
-8.10
-7.61
-7.48
-7.80
-8.54
-9.54
-10.61
-11.63
-12.58
-13.52
-14.54
-15.68
-16.96
-18.36
-19.95
-21.77
-23.86
-26.16
-28.53
-30.78
-32.77
-34.42
-35.77
-36.85
-37.67
-38.18
-38.30
-37.96
-37.17
-36.06
-34.87
-33.88
-33.35
-33.29
-33.52
-33.51
-32.68
-30.51
-26.81
-21.81
-16.06
-10.25
-4.94
-0.48
3.06
5.72
7.53
8.46
8.44
7.45
5.63
3.27
0.79
-1.35
-2.75
-3.21
-2.69
-1.32
0.62
2.87
5.17
7.33
9.16
10.53
11.29
11.33
10.65
9.38
7.74
6.02
4.58
3.68
3.43
3.76
4.40
4.96
5.08
4.54
3.34
1.72
0.04
-1.31
-1.96
-1.67
-0.32
2.02
5.10
8.51
11.77
14.51
16.51
17.75
18.34
18.42
18.08
17.33
16.07
14.25
11.90
9.15
6.20
3.24
0.49
-1.86
-3.59
-4.45
-4.24
-2.88
-0.52
2.48
5.71
8.86
11.88
14.96
18.31
21.95
25.53
28.46
30.23
30.63
29.89
28.55
27.11
25.83
24.65
23.38
22.01
20.79
20.23
20.76
22.46
24.90
27.30
28.82
28.98
27.78
25.69
23.39
21.50
20.35
19.94
20.09
20.55
21.17
21.87
22.66
23.55
24.51
25.50
26.38
26.99
27.01
26.01
23.44
18.76
11.59
1.86
-10.03
-23.30
-36.94
-50.02
-61.95
-72.53
-81.87
-90.16
-97.43
-103.51
-108.17
-111.26
-112.80
-112.84
-111.42
-108.46
-103.95
-98.05
-91.16
-83.85
-76.56
-69.45
-62.35
-55.04
-47.48
-40.09
-33.58
-28.70
-25.87
-24.97
-25.50
-26.76
-28.15
-29.35
-30.25
-30.89
-31.34
-31.60
-31.68
-31.62
-31.50
-31.29
-30.76
-29.46
-27.02
-23.41
-19.17
-15.25
-12.63
-11.90
-13.00
-15.36
-18.36
-21.70
-25.56
-30.37
-36.40
-43.39
-50.49
-56.46
-60.14
-60.79
-58.26
-53.00
-45.81
-37.60
-29.16
-20.97
-13.24
-6.01
0.70
6.74
11.92
16.10
19.37
22.07
24.67
27.52
30.80
34.52
38.69
43.41
48.91
55.31
62.41
69.62
76.17
81.43
85.12
87.46
88.97
90.32
92.13
94.91
99.04
104.63
111.51
119.05
126.41
132.67
137.10
139.32
139.37
137.59
134.60
131.08
127.65
124.69
122.11
119.47
116.12
111.60
105.88
99.36
92.60
85.97
79.53
73.09
66.57
60.19
54.47
49.98
46.88
44.81
42.94
40.46
36.88
32.30
27.30
22.53
18.45
15.05
11.99
8.78
5.03
0.62
-4.31
-9.47
-14.56
-19.33
-23.73
-27.81
-31.81
-36.03
-40.77
-46.27
-52.61
-59.75
-67.45
-75.45
-83.37
-90.80
-97.28
-102.37
-105.76
-107.35
-107.28
-105.84
-103.27
-99.62
-94.76
-88.46
-80.60
-71.37
-61.24
-50.87
-40.86
-31.59
-23.19
-15.61
-8.81
-2.80
2.32
6.43
9.41
11.21
11.78
11.11
9.25
6.37
2.80
-0.99
-4.46
-7.12
-8.59
-8.64
-7.28
-4.83
-1.88
0.82
2.54
2.91
2.04
0.54
-0.73
-1.10
-0.28
1.48
3.63
5.61
7.09
8.01
8.48
8.60
8.40
7.85
7.00
6.08
5.43
5.37
6.03
7.23
8.62
9.76
10.42
10.54
10.24
9.67
8.86
7.72
6.06
3.75
0.75
-2.83
-6.77
-10.77
-14.54
-17.81
-20.38
-22.24
-23.44
-24.15
-24.48
-24.47
-24.03
-22.91
-20.87
-17.69
-13.29
-7.76
-1.38
5.41
12.01
17.81
22.31
25.24
26.65
26.89
26.43
25.75
25.19
25.02
25.39
26.40
28.02
30.06
32.16
33.86
34.75
34.66
33.73
32.32
30.90
29.89
29.55
30.01
31.25
33.15
35.54
38.24
41.12
44.11
47.18
50.18
52.82
54.64
55.18
54.13
51.57
47.90
43.75
39.75
36.27
33.37
30.77
27.97
24.42
19.70
13.62
6.27
-2.08
-11.04
-20.26
-29.45
-38.34
-46.62
-53.90
-59.73
-63.78
-65.85
-66.03
-64.52
-61.65
-57.70
-52.95
-47.63
-42.04
-36.51
-31.34
-26.78
-22.95
-19.81
-17.20
-14.89
-12.68
-10.38
-7.93
-5.46
-3.28
-1.89
-1.90
-3.87
-8.08
-14.36
-22.01
-30.05
-37.44
-43.48
-47.93
-50.98
-53.03
-54.36
-55.04
-54.85
-53.54
-50.90
-46.90
-41.64
-35.35
-28.35
-21.11
-14.28
-8.55
-4.59
-2.79
-3.13
-5.23
-8.51
-12.35
-16.25
-19.86
-22.89
-25.06
-26.09
-25.81
-24.22
-21.68
-18.79
-16.25
-14.64
-14.20
-14.75
-15.78
-16.56
-16.37
-14.62
-10.97
-5.42
1.69
9.70
17.80
25.16
31.16
35.52
38.28
39.75
40.30
40.28
39.91
39.32
38.50
37.38
35.80
33.56
30.49
26.53
21.73
16.20
10.10
3.54
-3.42
-10.75
-18.41
-26.30
-34.22
-41.87
-48.84
-54.66
-58.92
-61.40
-62.17
-61.68
-60.59
-59.67
-59.45
-60.02
-60.97
-61.48
-60.63
-57.73
-52.58
-45.59
-37.55
-29.37
-21.74
-15.02
-9.22
-4.28
-0.21
2.94
5.15
6.58
7.63
8.77
10.30
12.23
14.26
15.99
17.14
17.66
17.74
17.65
17.56
17.43
17.06
16.17
14.49
11.98
8.76
5.15
1.51
-1.95
-5.24
-8.62
-12.47
-17.12
-22.66
-28.85
-35.12
-40.68
-44.68
-46.39
-45.44
-41.88
-36.18
-29.16
-21.70
-14.57
-8.24
-2.89
1.54
5.17
8.13
10.49
12.32
13.76
15.00
16.24
17.57
18.93
20.10
20.79
20.81
20.16
18.97
17.47
15.81
13.97
11.78
9.05
5.74
1.94
-1.96
-5.56
-8.41
-10.33
-11.39
-11.96
-12.65
-14.11
-16.78
-20.65
-25.16
-29.22
-31.46
-30.65
-26.11
-17.98
-7.21
4.76
16.48
26.94
35.76
43.15
49.52
55.22
60.28
64.48
67.58
69.47
70.28
70.21
69.46
68.07
66.04
63.43
60.46
57.40
54.52
51.78
48.93
45.60
41.61
37.15
32.74
28.99
26.30
24.62
23.51
22.23
20.12
16.70
11.75
5.36
-2.08
-9.87
-16.96
-22.10
-24.17
-22.52
-17.20
-9.06
0.58
10.27
18.92
25.90
31.09
34.64
36.79
37.70
37.53
36.48
34.86
33.08
31.50
30.32
29.54
28.99
28.47
27.78
26.82
25.52
23.87
21.86
19.56
17.10
14.69
12.49
10.61
9.00
7.50
5.92
4.08
1.83
-0.92
-4.32
-8.40
-13.08
-18.02
-22.54
-25.80
-26.94
-25.34
-20.62
-12.74
-1.75
12.06
28.22
45.80
63.38
79.23
91.66
99.49
102.46
101.23
97.10
91.58
85.84
80.53
75.75
71.23
66.61
61.57
55.94
49.66
42.75
35.27
27.35
19.21
11.09
3.24
-4.23
-11.29
-18.02
-24.44
-30.46
-35.92
-40.65
-44.61
-47.91
-50.79
-53.46
-55.93
-58.01
-59.33
-59.58
-58.63
-56.70
-54.19
-51.60
-49.21
-47.08
-45.06
-42.99
-40.85
-38.79
-37.08
-35.88
-35.15
-34.62
-33.91
-32.70
-30.90
-28.64
-26.26
-24.09
-22.37
-21.11
-20.18
-19.36
-18.55
-17.75
-17.10
-16.83
-17.03
-17.71
-18.73
-19.85
-20.89
-21.77
-22.56
-23.43
-24.56
-25.96
-27.41
-28.41
-28.32
-26.61
-23.03
-17.83
-11.62
-5.18
0.88
6.15
10.56
14.14
16.88
18.74
19.66
19.74
19.21
18.48
17.86
17.51
17.31
17.02
16.33
15.08
13.28
11.12
8.86
6.70
4.76
3.04
1.46
-0.06
-1.59
-3.12
-4.66
-6.25
-7.94
-9.74
-11.59
-13.34
-14.80
-15.91
-16.68
-17.19
-17.47
-17.37
-16.61
-14.88
-12.05
-8.23
-3.80
0.80
5.19
9.10
12.42
15.02
16.76
17.49
17.18
16.00
14.31
12.57
11.11
10.06
9.32
8.66
7.85
6.80
5.61
4.51
3.70
3.24
3.04
2.83
2.32
1.34
-0.07
-1.71
-3.26
-4.48
-5.28
-5.76
-6.11
-6.56
-7.31
-8.50
-10.15
-12.21
-14.47
-16.55
-17.96
-18.18
-16.94
-14.27
-10.58
-6.47
-2.54
0.84
3.51
5.53
6.98
7.85
8.07
7.55
6.31
4.60
2.78
1.25
0.26
-0.17
-0.28
-0.42
-0.92
-1.97
-3.52
-5.43
-7.47
-9.52
-11.51
-13.46
-15.37
-17.19
-18.80
-20.09
-21.03
-21.68
-22.14
-22.56
-22.98
-23.39
-23.74
-24.04
-24.34
-24.75
-25.27
-25.72
-25.76
-24.93
-22.87
-19.48
-14.97
-9.80
-4.54
0.31
4.43
7.76
10.38
12.52
14.35
15.93
17.21
18.02
18.23
17.78
16.82
15.55
14.16
12.76
11.35
9.87
8.33
6.81
5.50
4.57
4.02
3.63
3.07
2.00
0.32
-1.86
-4.17
-6.21
-7.71
-8.64
-9.19
-9.65
-10.26
-11.18
-12.46
-14.07
-15.94
-17.91
-19.65
-20.68
-20.53
-18.91
-15.85
-11.79
-7.32
-3.05
0.69
3.88
6.65
9.13
11.28
12.88
13.73
13.79
13.27
12.59
12.19
12.29
12.84
13.55
14.00
13.82
12.80
10.88
8.18
4.94
1.57
-1.45
-3.59
-4.48
-4.05
-2.56
-0.49
1.63
3.45
4.88
5.98
6.83
7.37
7.31
6.21
3.75
-0.09
-4.89
-9.84
-13.93
-16.30
-16.48
-14.51
-10.86
-6.26
-1.39
3.28
7.49
11.11
14.02
16.04
16.98
16.77
15.58
13.88
12.34
11.57
11.95
13.42
15.51
17.45
18.42
17.78
15.21
10.80
4.95
-1.71
-8.41
-14.40
-19.02
-21.88
-23.00
-22.87
-22.42
-22.66
-24.29
-27.37
-31.21
-34.70
-36.73
-36.68
-34.57
-30.90
-26.32
-21.28
-15.98
-10.49
-4.99
0.11
4.33
7.27
8.89
9.54
9.89
10.67
12.42
15.28
18.92
22.56
25.26
26.21
25.00
21.82
17.34
12.47
7.96
4.23
1.22
-1.43
-4.11
-7.03
-10.15
-13.27
-16.18
-18.90
-21.75
-25.30
-30.14
-36.61
-44.61
-53.53
-62.38
-70.09
-75.65
-78.34
-77.71
-73.61
-66.15
-55.78
-43.33
-29.92
-16.72
-4.76
5.36
13.41
19.46
23.71
26.46
28.23
29.80
32.14
36.13
42.03
49.19
56.18
61.22
62.97
61.14
56.52
50.66
45.03
40.42
36.83
33.71
30.50
27.06
23.70
20.79
18.42
16.16
13.26
9.05
3.50
-2.69
-8.19
-11.61
-12.09
-9.66
-5.22
-0.12
4.38
7.60
9.55
10.79
12.01
13.61
15.48
17.06
17.59
16.42
13.28
8.42
2.55
-3.29
-8.04
-10.89
-11.57
-10.40
-8.18
-5.90
-4.46
-4.33
-5.58
-7.99
-11.16
-14.73
-18.43
-22.11
-25.81
-29.78
-34.45
-40.19
-47.03
-54.42
-61.26
-66.19
-68.05
-66.31
-61.16
-53.44
-44.39
-35.34
-27.51
-21.93
-19.27
-19.74
-23.00
-28.25
-34.24
-39.43
-42.20
-41.28
-36.25
-27.87
-18.14
-9.63
-4.49
-3.58
-6.08
-10.07
-13.45
-14.98
-14.64
-13.32
-12.07
-11.44
-11.33
-11.27
-10.85
-10.04
-9.12
-8.53
-8.58
-9.39
-10.85
-12.71
-14.57
-15.95
-16.31
-15.18
-12.30
-7.72
-1.80
4.89
11.72
18.17
23.87
28.53
31.99
34.14
35.04
34.94
34.24
33.41
32.79
32.50
32.45
32.37
31.95
31.02
29.51
27.52
25.21
22.72
20.16
17.55
14.90
12.23
9.63
7.20
5.05
3.19
1.54
-0.04
-1.70
-3.54
-5.63
-7.91
-10.22
-12.24
-13.42
-13.07
-10.52
-5.37
2.28
11.84
22.36
32.91
42.80
51.71
59.54
66.22
71.61
75.60
78.32
80.26
82.24
85.11
89.35
94.81
100.59
105.36
107.72
106.66
101.81
93.52
82.70
70.65
58.69
47.92
39.05
32.22
27.07
22.85
18.70
13.91
8.11
1.38
-5.86
-12.88
-18.90
-23.20
-25.35
-25.28
-23.41
-20.64
-18.08
-16.83
-17.62
-20.68
-25.70
-32.02
-38.86
-45.48
-51.22
-55.42
-57.47
-56.88
-53.49
-47.60
-39.97
-31.57
-23.27
-15.61
-8.71
-2.38
3.75
10.14
17.39
26.26
37.49
51.51
67.95
85.41
101.58
113.87
120.22
119.74
112.94
101.35
86.86
71.09
55.13
39.70
25.44
13.15
3.63
-2.66
-5.94
-7.16
-7.67
-8.73
-10.95
-14.16
-17.61
-20.43
-22.03
-22.40
-21.95
-21.28
-20.78
-20.50
-20.14
-19.32
-17.85
-15.86
-13.81
-12.26
-11.60
-11.93
-13.05
-14.62
-16.33
-18.00
-19.63
-21.37
-23.39
-25.85
-28.79
-32.01
-35.08
-37.46
-38.65
-38.37
-36.56
-33.24
-28.33
-21.66
-13.12
-2.89
8.39
19.73
30.03
38.43
44.44
47.81
48.35
45.81
39.89
30.49
18.03
3.47
-11.80
-26.28
-38.77
-48.69
-56.04
-61.24
-64.80
-67.05
-68.06
-67.81
-66.41
-64.18
-61.56
-58.88
-56.23
-53.56
-51.01
-49.18
-49.08
-51.72
-57.47
-65.47
-73.48
-78.43
-77.49
-69.36
-54.98
-37.35
-20.44
-7.61
-0.37
1.86
1.15
-0.23
-0.80
-0.29
0.79
1.83
2.71
3.74
5.31
7.45
9.63
11.09
11.26
10.05
8.01
5.99
4.82
4.90
6.00
7.38
8.09
7.37
4.98
1.24
-3.09
-7.17
-10.38
-12.56
-13.97
-15.13
-16.59
-18.77
-21.81
-25.67
-30.15
-34.85
-39.26
-42.71
-44.53
-44.26
-41.79
-37.46
-31.98
-26.15
-20.65
-15.87
-11.84
-8.39
-5.20
-2.06
1.21
4.71
8.50
12.68
17.29
22.27
27.39
32.24
36.35
39.38
41.26
42.30
42.97
43.73
44.82
46.16
47.54
48.80
50.03
51.50
53.56
56.33
59.62
63.01
65.97
68.15
69.38
69.62
68.86
66.94
63.58
58.45
51.38
42.55
32.60
22.53
13.54
6.64
2.40
0.78
1.21
2.81
4.68
6.11
6.60
5.94
4.06
1.12
-2.50
-6.24
-9.47
-11.67
-12.58
-12.23
-10.94
-9.10
-7.17
-5.49
-4.29
-3.66
-3.61
-4.04
-4.82
-5.85
-7.08
-8.52
-10.11
-11.74
-13.18
-14.17
-14.54
-14.32
-13.77
-13.22
-12.98
-13.23
-14.04
-15.41
-17.41
-20.09
-23.38
-26.88
-29.90
-31.57
-31.19
-28.55
-24.04
-18.49
-12.82
-7.69
-3.38
0.19
3.19
5.66
7.55
8.76
9.33
9.51
9.65
10.05
10.82
11.83
12.78
13.43
13.66
13.55
13.23
12.81
12.29
11.56
10.48
8.97
7.04
4.83
2.50
0.19
-2.07
-4.28
-6.50
-8.75
-11.05
-13.43
-15.95
-18.63
-21.42
-24.06
-26.04
-26.82
-25.89
-23.15
-18.88
-13.70
-8.36
-3.44
0.71
4.03
6.59
8.50
9.83
10.58
10.82
10.67
10.35
10.09
10.02
10.15
10.38
10.54
10.47
10.14
9.57
8.81
7.90
6.77
5.34
3.54
1.36
-1.12
-3.76
-6.44
-9.02
-11.46
-13.78
-16.05
-18.44
-21.15
-24.32
-27.88
-31.49
-34.49
-36.15
-35.84
-33.32
-28.83
-23.02
-16.73
-10.77
-5.74
-1.94
0.56
1.81
1.97
1.24
-0.11
-1.79
-3.47
-4.89
-5.92
-6.61
-7.17
-7.81
-8.71
-9.87
-11.14
-12.29
-13.12
-13.52
-13.43
-12.88
-11.80
-10.16
-7.92
-5.14
-2.01
1.13
3.85
5.71
6.36
5.65
3.72
1.05
-1.60
-3.38
-3.61
-1.98
1.34
5.79
10.67
15.39
19.58
23.10
25.90
27.89
28.98
29.10
28.34
26.98
25.42
24.00
22.88
22.03
21.30
20.55
19.74
18.86
17.93
16.93
15.74
14.25
12.36
10.06
7.39
4.51
1.61
-1.13
-3.56
-5.66
-7.53
-9.37
-11.38
-13.77
-16.61
-19.83
-23.18
-26.18
-28.23
-28.71
-27.16
-23.48
-18.02
-11.51
-4.84
1.23
6.23
10.02
12.75
14.61
15.77
16.30
16.30
15.87
15.21
14.53
14.03
13.78
13.76
13.85
13.86
13.62
13.03
12.02
10.63
8.96
7.14
5.24
3.32
1.37
-0.63
-2.63
-4.51
-6.16
-7.59
-8.92
-10.45
-12.49
-15.25
-18.64
-22.27
-25.51
-27.67
-28.20
-26.79
-23.52
-18.76
-13.13
-7.27
-1.78
2.97
6.77
9.60
11.51
12.59
12.99
12.85
12.39
11.85
11.45
11.32
11.46
11.73
11.92
11.85
11.39
10.54
9.36
7.94
6.33
4.49
2.35
-0.17
-3.05
-6.21
-9.49
-12.73
-15.83
-18.81
-21.82
-25.01
-28.50
-32.32
-36.36
-40.34
-43.83
-46.25
-46.97
-45.40
-41.22
-34.52
-25.79
-15.86
-5.60
4.24
13.11
20.72
26.85
31.37
34.16
35.27
34.94
33.63
31.91
30.26
28.97
28.03
27.23
26.27
24.89
23.03
20.74
18.23
15.68
13.22
10.84
8.49
6.07
3.54
0.96
-1.54
-3.82
-5.80
-7.51
-9.09
-10.74
-12.64
-14.93
-17.60
-20.51
-23.32
-25.57
-26.73
-26.37
-24.28
-20.58
-15.71
-10.27
-4.88
-0.09
3.75
6.41
7.84
8.15
7.59
6.56
5.52
4.82
4.68
5.11
5.94
6.96
7.98
8.88
9.62
10.15
10.44
10.43
10.02
9.14
7.78
5.99
3.92
1.81
-0.12
-1.69
-2.85
-3.70
-4.48
-5.47
-6.91
-8.87
-11.25
-13.66
-15.57
-16.38
-15.61
-13.07
-8.93
-3.76
1.73
6.81
10.97
14.02
16.01
17.09
17.43
17.16
16.39
15.29
14.11
13.13
12.55
12.42
12.64
12.92
13.02
12.77
12.12
11.15
9.95
8.62
7.18
5.62
3.88
1.94
-0.21
-2.53
-4.91
-7.21
-9.31
-11.22
-13.07
-15.07
-17.46
-20.25
-23.14
-25.55
-26.79
-26.28
-23.85
-19.72
-14.40
-8.57
-2.81
2.40
6.79
10.20
12.57
13.93
14.37
14.14
13.54
12.88
12.43
12.34
12.58
13.00
13.40
13.53
13.27
12.57
11.54
10.31
9.01
7.65
6.18
4.53
2.65
0.60
-1.52
-3.56
-5.48
-7.30
-9.12
-11.02
-13.04
-15.18
-17.41
-19.77
-22.17
-24.41
-26.05
-26.50
-25.30
-22.29
-17.79
-12.49
-7.18
-2.48
1.37
4.40
6.79
8.62
9.83
10.38
10.30
9.84
9.31
9.03
9.07
9.31
9.49
9.35
8.78
7.80
6.55
5.18
3.84
2.59
1.40
0.20
-1.16
-2.83
-4.92
-7.38
-10.12
-12.93
-15.68
-18.31
-20.84
-23.38
-26.03
-28.92
-32.10
-35.54
-39.01
-42.06
-44.07
-44.36
-42.48
-38.28
-32.05
-24.33
-15.80
-7.04
1.54
9.69
17.20
23.88
29.51
33.92
37.02
38.86
39.63
39.61
39.09
38.33
37.49
36.63
35.74
34.72
33.43
31.81
29.85
27.61
25.19
22.70
20.17
17.62
15.02
12.38
9.75
7.20
4.79
2.53
0.33
-1.91
-4.30
-6.90
-9.71
-12.70
-15.73
-18.55
-20.73
-21.80
-21.34
-19.16
-15.46
-10.70
-5.56
-0.62
3.70
7.24
9.93
11.77
12.76
12.93
12.41
11.46
10.44
9.64
9.26
9.27
9.54
9.87
10.08
10.09
9.87
9.42
8.77
7.90
6.82
5.48
3.92
2.16
0.27
-1.65
-3.52
-5.25
-6.79
-8.15
-9.38
-10.61
-11.99
-13.68
-15.76
-18.14
-20.50
-22.33
-23.03
-22.17
-19.61
-15.58
-10.60
-5.28
-0.21
4.20
7.76
10.35
11.97
12.62
12.41
11.59
10.49
9.48
8.88
8.77
9.10
9.60
9.97
9.99
9.61
8.94
8.16
7.41
6.69
5.87
4.76
3.21
1.22
-1.07
-3.42
-5.62
-7.54
-9.22
-10.78
-12.38
-14.19
-16.29
-18.68
-21.27
-23.82
-25.96
-27.22
-27.15
-25.42
-21.99
-17.12
-11.39
-5.45
0.09
4.84
8.64
11.50
13.54
14.83
15.43
15.39
14.87
14.10
13.38
12.95
12.89
13.07
13.22
13.05
12.42
11.39
10.17
8.98
7.92
6.89
5.65
3.97
1.79
-0.72
-3.25
-5.44
-7.09
-8.26
-9.18
-10.20
-11.61
-13.54
-16.01
-18.90
-22.02
-25.04
-27.53
-28.98
-28.91
-27.00
-23.29
-18.17
-12.30
-6.39
-0.99
3.60
7.36
10.36
12.72
14.44
15.52
16.00
15.99
15.71
15.42
15.33
15.50
15.87
16.26
16.47
16.37
15.95
15.25
14.34
13.28
12.05
10.60
8.88
6.91
4.78
2.65
0.67
-1.06
-2.54
-3.87
-5.22
-6.76
-8.60
-10.74
-13.11
-15.59
-18.05
-20.34
-22.22
-23.36
-23.39
-21.98
-18.98
-14.55
-9.12
-3.32
2.21
6.99
10.74
13.41
15.14
16.11
16.47
16.38
15.96
15.34
14.70
14.19
13.93
13.93
14.10
14.24
14.20
13.86
13.21
12.33
11.27
10.06
8.69
7.16
5.47
3.67
1.80
-0.07
-1.89
-3.63
-5.25
-6.74
-8.11
-9.43
-10.76
-12.24
-13.97
-16.01
-18.32
-20.71
-22.85
-24.26
-24.43
-22.99
-19.84
-15.25
-9.79
-4.14
1.08
5.47
8.86
11.24
12.65
13.14
12.81
11.90
10.80
9.96
9.69
10.09
10.97
11.98
12.74
13.01
12.74
11.99
10.91
9.62
8.28
6.98
5.77
4.65
3.52
2.27
0.85
-0.73
-2.38
-4.00
-5.53
-7.00
-8.50
-10.12
-11.97
-14.08
-16.41
-18.83
-21.04
-22.57
-22.96
-21.82
-19.06
-14.93
-9.93
-4.71
0.20
4.43
7.80
10.28
11.86
12.54
12.39
11.57
10.38
9.22
8.42
8.16
8.42
9.01
9.64
10.03
10.03
9.56
8.68
7.46
6.01
4.40
2.69
0.89
-0.99
-2.95
-5.00
-7.08
-9.13
-11.11
-12.99
-14.83
-16.75
-18.88
-21.35
-24.18
-27.15
-29.83
-31.57
-31.75
-29.92
-26.06
-20.53
-14.00
-7.29
-1.09
4.13
8.17
11.06
12.94
14.03
14.56
14.73
14.71
14.66
14.69
14.88
15.25
15.73
16.16
16.35
16.17
15.60
14.74
13.72
12.64
11.42
9.89
7.87
5.29
2.31
-0.75
-3.55
-5.81
-7.50
-8.77
-9.96
-11.45
-13.54
-16.36
-19.74
-23.22
-26.12
-27.74
-27.48
-25.15
-20.96
-15.50
-9.54
-3.80
1.20
5.22
8.17
10.09
11.07
11.25
10.87
10.26
9.78
9.72
10.16
10.99
11.92
12.59
12.77
12.40
11.59
10.51
9.34
8.14
6.87
5.45
3.83
1.99
-0.01
-2.09
-4.12
-6.04
-7.80
-9.37
-10.86
-12.40
-14.21
-16.46
-19.19
-22.19
-25.00
-27.04
-27.74
-26.71
-23.86
-19.39
-13.77
-7.58
-1.44
4.11
8.73
12.23
14.64
16.15
17.00
17.38
17.46
17.36
17.20
17.07
17.09
17.24
17.43
17.47
17.18
16.51
15.54
14.46
13.38
12.32
11.13
9.63
7.69
5.34
2.78
0.24
-2.06
-4.06
-5.84
-7.57
-9.44
-11.59
-14.09
-16.89
-19.82
-22.52
-24.52
-25.33
-24.57
-22.11
-18.14
-13.12
-7.65
-2.34
2.35
6.14
8.92
10.73
11.67
11.90
11.62
11.06
10.52
10.28
10.57
11.46
12.79
14.22
15.34
15.80
15.51
14.59
13.33
12.01
10.71
9.38
7.83
5.97
3.84
1.66
-0.36
-2.09
-3.60
-5.10
-6.84
-8.99
-11.55
-14.46
-17.59
-20.78
-23.80
-26.26
-27.64
-27.40
-25.25
-21.25
-15.95
-10.16
-4.71
-0.17
3.28
5.80
7.68
9.19
10.44
11.41
12.06
12.43
12.64
12.87
13.21
13.67
14.10
14.26
13.96
13.18
12.02
10.72
9.46
8.32
7.18
5.85
4.17
2.14
-0.07
-2.17
-3.92
-5.23
-6.23
-7.22
-8.58
-10.60
-13.37
-16.71
-20.13
-22.95
-24.47
-24.16
-21.92
-18.01
-13.01
-7.62
-2.42
2.18
5.99
8.90
10.88
11.92
12.15
11.82
11.26
10.85
10.78
11.08
11.59
12.06
12.26
12.11
11.66
11.05
10.42
9.83
9.23
8.51
7.51
6.14
4.42
2.47
0.42
-1.59
-3.52
-5.34
-7.04
-8.63
-10.16
-11.71
-13.46
-15.58
-18.06
-20.63
-22.74
-23.72
-22.97
-20.27
-15.85
-10.35
-4.57
0.77
5.22
8.65
11.11
12.73
13.64
13.90
13.61
12.96
12.24
11.74
11.66
12.04
12.71
13.44
13.93
14.05
13.81
13.33
12.79
12.26
11.71
10.95
9.84
8.26
6.25
3.99
1.71
-0.39
-2.22
-3.84
-5.40
-7.05
-8.96
-11.19
-13.74
-16.48
-19.18
-21.49
-22.93
-23.11
-21.69
-18.62
-14.17
-8.84
-3.32
1.75
5.93
9.00
11.00
12.09
12.46
12.25
11.65
10.82
10.04
9.56
9.58
10.12
10.95
11.75
12.19
12.06
11.40
10.38
9.24
8.18
7.27
6.45
5.60
4.58
3.31
1.77
0.06
-1.68
-3.28
-4.66
-5.87
-7.08
-8.52
-10.40
-12.75
-15.39
-17.91
-19.78
-20.48
-19.66
-17.24
-13.44
-8.72
-3.65
1.24
5.54
8.99
11.46
12.93
13.48
13.26
12.52
11.56
10.68
10.12
9.96
10.17
10.56
10.93
11.09
10.97
10.57
9.95
9.17
8.28
7.28
6.14
4.82
3.32
1.65
-0.15
-2.00
-3.79
-5.42
-6.83
-8.08
-9.28
-10.66
-12.40
-14.59
-17.15
-19.76
-21.97
-23.26
-23.21
-21.62
-18.54
-14.29
-9.38
-4.35
0.28
4.15
7.01
8.81
9.58
9.47
8.71
7.63
6.54
5.76
5.46
5.67
6.26
6.99
7.59
7.88
7.77
7.33
6.69
5.96
5.19
4.32
3.23
1.82
0.09
-1.87
-3.85
-5.65
-7.15
-8.36
-9.42
-10.59
-12.11
-14.14
-16.71
-19.55
-22.22
-24.15
-24.80
-23.85
-21.25
-17.31
-12.55
-7.59
-3.00
0.85
3.75
5.70
6.78
7.15
7.00
6.55
5.99
5.50
5.19
5.08
5.13
5.25
5.35
5.39
5.34
5.24
5.08
4.85
4.45
3.74
2.62
1.08
-0.75
-2.57
-4.04
-4.92
-5.16
-5.01
-4.92
-5.38
-6.73
-9.06
-12.10
-15.37
-18.24
-20.13
-20.58
-19.41
-16.64
-12.57
-7.67
-2.52
2.34
6.47
9.58
11.58
12.50
12.51
11.90
11.05
10.33
10.03
10.24
10.85
11.59
12.17
12.41
12.24
11.77
11.08
10.25
9.24
8.01
6.53
4.82
2.93
0.92
-1.16
-3.32
-5.52
-7.78
-10.07
-12.41
-14.80
-17.29
-19.87
-22.46
-24.81
-26.51
-27.15
-26.35
-23.99
-20.26
-15.58
-10.55
-5.70
-1.41
2.17
4.99
7.10
8.54
9.32
9.53
9.36
9.04
8.85
8.93
9.31
9.88
10.49
10.99
11.35
11.56
11.63
11.57
11.40
11.09
10.64
10.06
9.32
8.37
7.19
5.81
4.34
2.91
1.62
0.39
-0.96
-2.71
-5.07
-8.06
-11.40
-14.58
-16.97
-17.99
-17.34
-15.08
-11.58
-7.44
-3.25
0.55
3.77
6.42
8.58
10.31
11.59
12.34
12.56
12.34
11.86
11.38
11.09
11.07
11.30
11.60
11.81
11.82
11.56
11.04
10.26
9.24
7.96
6.42
4.67
2.76
0.80
-1.10
-2.87
-4.47
-5.94
-7.29
-8.61
-9.96
-11.43
-13.12
-15.09
-17.30
-19.54
-21.43
-22.49
-22.29
-20.59
-17.44
-13.18
-8.33
-3.47
0.94
4.58
7.31
9.11
10.03
10.18
9.75
9.02
8.28
7.82
7.81
8.26
9.03
9.84
10.42
10.55
10.11
9.17
7.90
6.55
5.31
4.26
3.31
2.29
1.01
-0.58
-2.40
-4.27
-6.00
-7.51
-8.87
-10.27
-11.95
-14.02
-16.43
-18.87
-20.84
-21.76
-21.18
-18.93
-15.23
-10.60
-5.68
-1.07
2.87
5.99
8.28
9.78
10.55
10.67
10.33
9.79
9.32
9.07
9.03
9.10
9.15
9.10
9.01
8.93
8.89
8.77
8.37
7.50
6.04
4.06
1.77
-0.58
-2.75
-4.60
-6.12
-7.40
-8.63
-10.02
-11.78
-14.00
-16.63
-19.44
-22.01
-23.82
-24.38
-23.35
-20.69
-16.65
-11.72
-6.52
-1.61
2.61
6.00
8.54
10.37
11.58
12.27
12.50
12.38
12.06
11.77
11.67
11.84
12.15
12.41
12.40
12.05
11.43
10.68
9.94
9.19
8.32
7.14
5.55
3.58
1.37
-0.88
-3.01
-4.95
-6.70
-8.38
-10.11
-12.06
-14.35
-16.97
-19.75
-22.32
-24.16
-24.79
-23.92
-21.52
-17.83
-13.27
-8.33
-3.42
1.17
5.20
8.53
10.99
12.50
13.11
13.04
12.65
12.31
12.29
12.66
13.31
13.96
14.38
14.44
14.13
13.59
12.96
12.29
11.58
10.72
9.58
8.10
6.29
4.25
2.13
0.11
-1.70
-3.26
-4.62
-5.92
-7.36
-9.12
-11.34
-13.99
-16.85
-19.51
-21.41
-22.04
-21.03
-18.33
-14.25
-9.34
-4.26
0.42
4.37
7.55
10.07
12.07
13.59
14.59
14.96
14.76
14.20
13.65
13.44
13.72
14.38
15.09
15.48
15.36
14.74
13.86
12.92
12.07
11.22
10.19
8.81
7.02
4.91
2.74
0.72
-0.99
-2.36
-3.53
-4.68
-5.97
-7.48
-9.28
-11.37
-13.75
-16.31
-18.78
-20.75
-21.66
-21.05
-18.67
-14.69
-9.62
-4.16
1.03
5.47
8.95
11.44
13.02
13.81
13.97
13.63
13.02
12.36
11.90
11.78
12.06
12.58
13.07
13.24
12.87
11.99
10.80
9.60
8.58
7.78
7.04
6.09
4.82
3.23
1.46
-0.31
-1.96
-3.46
-4.80
-6.00
-7.12
-8.20
-9.40
-10.92
-12.96
-15.53
-18.46
-21.31
-23.49
-24.41
-23.66
-21.16
-17.19
-12.30
-7.12
-2.20
2.13
5.67
8.37
10.17
11.07
11.11
10.53
9.67
8.94
8.63
8.82
9.31
9.80
9.99
9.77
9.24
8.62
8.11
7.80
7.56
7.13
6.24
4.70
2.54
-0.01
-2.59
-4.85
-6.59
-7.84
-8.79
-9.75
-11.02
-12.74
-14.93
-17.41
-19.91
-22.07
-23.48
-23.75
-22.57
-19.84
-15.73
-10.65
-5.19
0.04
4.54
8.00
10.36
11.74
12.31
12.30
11.88
11.22
10.53
10.01
9.89
10.25
11.03
11.97
12.72
12.99
12.66
11.79
10.54
9.08
7.46
5.64
3.59
1.35
-0.92
-3.01
-4.80
-6.27
-7.53
-8.77
-10.18
-11.91
-14.06
-16.63
-19.47
-22.19
-24.28
-25.13
-24.33
-21.74
-17.65
-12.58
-7.21
-2.13
2.26
5.74
8.29
9.94
10.81
11.04
10.82
10.39
9.99
9.84
10.03
10.57
11.31
12.04
12.55
12.71
12.45
11.80
10.83
9.61
8.26
6.85
5.44
4.03
2.55
0.92
-0.89
-2.82
-4.72
-6.43
-7.89
-9.19
-10.57
-12.31
-14.58
-17.28
-19.98
-22.10
-23.02
-22.31
-19.94
-16.20
-11.66
-6.90
-2.38
1.63
5.06
7.86
9.99
11.34
11.85
11.59
10.85
10.05
9.63
9.83
10.61
11.68
12.62
13.07
12.93
12.32
11.48
10.61
9.79
8.92
7.85
6.47
4.77
2.84
0.83
-1.14
-2.98
-4.65
-6.11
-7.37
-8.51
-9.73
-11.30
-13.43
-16.17
-19.25
-22.09
-24.00
-24.35
-22.84
-19.52
-14.86
-9.52
-4.16
0.71
4.80
8.03
10.43
12.01
12.82
12.94
12.49
11.70
10.87
10.27
10.09
10.35
10.93
11.63
12.25
12.64
12.73
12.50
11.95
11.12
10.06
8.81
7.39
5.79
4.02
2.12
0.22
-1.49
-2.83
-3.77
-4.46
-5.19
-6.33
-8.14
-10.66
-13.69
-16.82
-19.54
-21.32
-21.72
-20.52
-17.74
-13.74
-9.08
-4.38
-0.15
3.31
5.95
7.89
9.25
10.11
10.52
10.56
10.32
9.99
9.73
9.66
9.78
10.05
10.39
10.72
10.94
11.00
10.87
10.56
10.09
9.51
8.81
7.88
6.62
4.93
2.85
0.58
-1.59
-3.37
-4.66
-5.56
-6.37
-7.41
-8.91
-10.91
-13.25
-15.59
-17.50
-18.55
-18.38
-16.80
-13.82
-9.69
-4.86
0.12
4.69
8.42
11.06
12.57
13.11
12.93
12.29
11.43
10.52
9.70
9.08
8.76
8.78
9.11
9.56
9.90
9.94
9.58
8.91
8.06
7.10
6.04
4.78
3.24
1.44
-0.49
-2.36
-4.04
-5.51
-6.86
-8.20
-9.63
-11.18
-12.82
-14.57
-16.43
-18.34
-20.09
-21.29
-21.52
-20.42
-17.92
-14.23
-9.87
-5.43
-1.43
1.83
4.28
5.95
6.93
7.32
7.17
6.64
5.93
5.27
4.86
4.78
4.97
5.29
5.56
5.65
5.53
5.21
4.74
4.13
3.33
2.30
0.98
-0.59
-2.28
-3.90
-5.32
-6.46
-7.44
-8.46
-9.81
-11.70
-14.18
-17.10
-20.08
-22.65
-24.26
-24.50
-23.17
-20.33
-16.29
-11.52
-6.53
-1.78
2.38
5.74
8.19
9.72
10.42
10.44
10.05
9.52
9.07
8.85
8.88
9.12
9.48
9.87
10.24
10.50
10.59
10.41
9.87
8.93
7.59
5.88
3.91
1.78
-0.34
-2.33
-4.11
-5.67
-7.15
-8.75
-10.68
-13.09
-15.93
-18.93
-21.66
-23.58
-24.19
-23.22
-20.63
-16.70
-11.93
-6.90
-2.17
1.89
5.07
7.35
8.83
9.66
10.03
10.08
9.96
9.77
9.61
9.54
9.63
9.88
10.26
10.68
11.04
11.23
11.14
10.72
9.94
8.79
7.33
5.61
3.74
1.84
0.04
-1.58
-2.98
-4.25
-5.56
-7.15
-9.24
-11.93
-15.08
-18.27
-20.85
-22.21
-21.91
-19.89
-16.45
-12.11
-7.42
-2.82
1.43
5.16
8.24
10.53
11.95
12.51
12.39
11.94
11.49
11.32
11.55
12.06
12.62
12.94
12.85
12.28
11.39
10.42
9.59
9.01
8.60
8.15
7.41
6.24
4.61
2.66
0.58
-1.44
-3.27
-4.89
-6.38
-7.88
-9.57
-11.64
-14.10
-16.83
-19.47
-21.48
-22.34
-21.60
-19.18
-15.33
-10.59
-5.60
-0.93
3.08
6.31
8.80
10.62
11.84
12.51
12.73
12.67
12.53
12.48
12.63
12.95
13.39
13.82
14.12
14.21
14.01
13.46
12.60
11.50
10.24
8.89
7.47
5.95
4.29
2.51
0.67
-1.10
-2.73
-4.20
-5.58
-6.95
-8.39
-9.97
-11.70
-13.59
-15.60
-17.60
-19.37
-20.52
-20.65
-19.43
-16.73
-12.75
-7.91
-2.84
1.89
5.88
8.94
11.11
12.50
13.27
13.56
13.47
13.14
12.74
12.44
12.38
12.59
13.01
13.50
13.90
14.06
13.91
13.38
12.49
11.29
9.85
8.27
6.62
4.92
3.18
1.45
-0.22
-1.71
-2.96
-3.97
-4.86
-5.81
-7.02
-8.66
-10.77
-13.31
-16.02
-18.54
-20.35
-20.97
-20.04
-17.55
-13.79
-9.30
-4.69
-0.41
3.29
6.33
8.68
10.31
11.15
11.22
10.70
9.89
9.20
8.91
9.14
9.78
10.58
11.28
11.66
11.66
11.30
10.64
9.79
8.81
7.76
6.62
5.35
3.85
2.09
0.13
-1.90
-3.77
-5.34
-6.57
-7.57
-8.62
-9.98
-11.88
-14.40
-17.41
-20.58
-23.38
-25.20
-25.53
-24.09
-20.95
-16.55
-11.50
-6.43
-1.83
2.09
5.30
7.87
9.86
11.31
12.22
12.66
12.75
12.66
12.57
12.61
12.82
13.15
13.51
13.74
13.74
13.46
12.93
12.23
11.49
10.74
9.93
8.94
7.68
6.10
4.29
2.40
0.60
-1.02
-2.47
-3.85
-5.26
-6.79
-8.47
-10.36
-12.51
-14.92
-17.51
-19.97
-21.78
-22.40
-21.41
-18.72
-14.67
-9.88
-5.08
-0.83
2.63
5.31
7.44
9.23
10.75
11.99
12.82
13.21
13.20
12.99
12.80
12.81
13.09
13.54
14.00
14.28
14.24
13.84
13.11
12.11
10.90
9.56
8.11
6.64
5.25
4.05
3.06
2.21
1.31
0.20
-1.21
-2.86
-4.58
-6.16
-7.52
-8.72
-10.00
-11.61
-13.70
-16.23
-18.95
-21.43
-23.12
-23.55
-22.36
-19.51
-15.31
-10.30
-5.16
-0.51
3.27
6.08
8.01
9.24
9.95
10.26
10.23
9.97
9.60
9.32
9.30
9.61
10.19
10.85
11.37
11.58
11.45
11.09
10.61
10.08
9.46
8.67
7.66
6.47
5.20
3.96
2.81
1.71
0.60
-0.58
-1.82
-3.04
-4.18
-5.22
-6.22
-7.31
-8.65
-10.37
-12.51
-14.92
-17.31
-19.28
-20.38
-20.30
-18.87
-16.22
-12.61
-8.46
-4.24
-0.32
3.00
5.54
7.28
8.29
8.71
8.70
8.39
7.88
7.30
6.76
6.42
6.38
6.66
7.16
7.67
8.00
7.97
7.56
6.84
5.97
5.08
4.26
3.54
2.89
2.25
1.56
0.78
-0.09
-1.04
-2.02
-2.99
-3.95
-4.88
-5.83
-6.90
-8.17
-9.75
-11.66
-13.81
-15.99
-17.83
-18.93
-18.94
-17.67
-15.17
-11.71
-7.70
-3.64
0.08
3.19
5.55
7.18
8.14
8.51
8.38
7.84
7.04
6.17
5.44
5.05
5.05
5.41
5.96
6.52
6.92
7.08
6.98
6.65
6.16
5.53
4.80
3.98
3.06
2.04
0.92
-0.25
-1.44
-2.58
-3.67
-4.72
-5.80
-6.99
-8.39
-10.06
-11.99
-14.09
-16.14
-17.81
-18.66
-18.33
-16.64
-13.70
-9.92
-5.88
-2.20
0.73
2.75
3.95
4.51
4.60
4.32
3.71
2.87
1.94
1.16
0.71
0.66
0.95
1.42
1.90
2.25
2.44
2.51
2.49
2.39
2.14
1.70
1.04
0.19
-0.80
-1.86
-2.94
-4.06
-5.18
-6.30
-7.39
-8.46
-9.58
-10.87
-12.47
-14.36
-16.32
-17.92
-18.66
-18.14
-16.21
-13.04
-9.04
-4.75
-0.70
2.69
5.22
6.79
7.49
7.50
7.04
6.34
5.56
4.87
4.32
4.00
3.94
4.12
4.49
4.92
5.28
5.42
5.30
4.95
4.45
3.86
3.16
2.32
1.26
-0.00
-1.37
-2.70
-3.88
-4.92
-5.93
-7.12
-8.69
-10.73
-13.12
-15.64
-17.92
-19.61
-20.35
-19.88
-18.15
-15.24
-11.48
-7.31
-3.19
0.47
3.45
5.64
7.07
7.84
8.07
7.93
7.58
7.22
7.00
6.99
7.20
7.56
7.98
8.37
8.64
8.73
8.61
8.20
7.47
6.39
4.99
3.33
1.55
-0.21
-1.81
-3.18
-4.32
-5.27
-6.17
-7.15
-8.40
-10.09
-12.26
-14.78
-17.21
-18.94
-19.36
-18.12
-15.27
-11.22
-6.64
-2.17
1.71
4.78
7.02
8.50
9.34
9.61
9.44
8.93
8.24
7.53
6.96
6.65
6.64
6.89
7.28
7.65
7.85
7.81
7.53
7.07
6.44
5.66
4.71
3.57
2.27
0.89
-0.42
-1.56
-2.47
-3.21
-3.99
-5.07
-6.72
-9.03
-11.86
-14.77
-17.18
-18.49
-18.33
-16.64
-13.69
-9.96
-5.92
-1.97
1.64
4.75
7.22
8.97
9.95
10.22
9.98
9.51
9.05
8.79
8.72
8.75
8.73
8.56
8.23
7.82
7.43
7.13
6.86
6.53
5.98
5.11
3.89
2.42
0.84
-0.69
-2.08
-3.33
-4.51
-5.77
-7.21
-8.94
-10.96
-13.21
-15.53
-17.62
-19.11
-19.59
-18.75
-16.51
-13.02
-8.72
-4.15
0.13
3.70
6.36
8.11
9.13
9.64
9.84
9.89
9.88
9.83
9.77
9.71
9.63
9.51
9.33
9.07
8.72
8.31
7.86
7.30
6.56
5.54
4.18
2.52
0.71
-1.05
-2.60
-3.92
-5.11
-6.38
-7.94
-9.91
-12.28
-14.88
-17.41
-19.49
-20.69
-20.64
-19.10
-16.10
-11.91
-7.03
-2.06
2.44
6.13
8.88
10.71
11.76
12.18
12.16
11.88
11.56
11.39
11.48
11.81
12.23
12.56
12.67
12.53
12.18
11.69
11.07
10.27
9.19
7.77
6.01
4.02
1.94
-0.08
-1.95
-3.66
-5.28
-6.91
-8.67
-10.66
-12.93
-15.40
-17.81
-19.75
-20.67
-20.18
-18.07
-14.49
-9.88
-4.84
0.05
4.43
8.11
11.13
13.55
15.40
16.66
17.31
17.39
17.04
16.49
15.98
15.66
15.56
15.64
15.79
15.87
15.79
15.49
14.93
14.09
12.96
11.57
9.96
8.21
6.38
4.56
2.78
1.10
-0.51
-2.09
-3.70
-5.42
-7.33
-9.52
-11.99
-14.65
-17.24
-19.36
-20.52
-20.33
-18.57
-15.36
-11.07
-6.25
-1.51
2.76
6.35
9.28
11.66
13.55
14.92
15.68
15.78
15.34
14.64
14.10
14.00
14.43
15.23
16.05
16.54
16.49
15.87
14.79
13.42
11.91
10.35
8.78
7.24
5.73
4.26
2.80
1.33
-0.17
-1.70
-3.24
-4.76
-6.27
-7.81
-9.47
-11.34
-13.47
-15.81
-18.19
-20.30
-21.70
-21.99
-20.90
-18.40
-14.76
-10.43
-5.94
-1.68
2.12
5.39
8.11
10.21
11.58
12.17
12.08
11.59
11.11
10.98
11.37
12.18
13.14
13.94
14.39
14.47
14.27
13.93
13.50
12.99
12.33
11.51
10.52
9.42
8.20
6.86
5.34
3.65
1.82
-0.05
-1.86
-3.54
-5.07
-6.51
-8.00
-9.67
-11.68
-14.06
-16.70
-19.31
-21.43
-22.57
-22.30
-20.45
-17.15
-12.82
-8.05
-3.43
0.62
3.86
6.27
7.90
8.87
9.26
9.19
8.80
8.30
7.94
7.88
8.19
8.75
9.36
9.82
9.98
9.79
9.30
8.61
7.81
7.00
6.22
5.49
4.76
3.97
3.01
1.84
0.44
-1.11
-2.66
-4.07
-5.27
-6.27
-7.21
-8.26
-9.60
-11.35
-13.46
-15.75
-17.86
-19.35
-19.83
-19.04
-16.98
-13.86
-10.07
-6.03
-2.14
1.30
4.08
6.08
7.26
7.66
7.42
6.75
5.87
5.05
4.45
4.20
4.31
4.69
5.19
5.62
5.87
5.88
5.67
5.30
4.79
4.14
3.33
2.32
1.12
-0.26
-1.80
-3.44
-5.12
-6.73
-8.14
-9.29
-10.23
-11.12
-12.25
-13.82
-15.85
-18.07
-19.99
-21.04
-20.78
-19.05
-16.06
-12.25
-8.14
-4.18
-0.63
2.39
4.86
6.78
8.13
8.91
9.18
9.07
8.79
8.55
8.47
8.57
8.75
8.88
8.86
8.64
8.28
7.87
7.55
7.35
7.23
7.05
6.63
5.82
4.56
2.93
1.07
-0.80
-2.47
-3.82
-4.79
-5.49
-6.11
-6.93
-8.18
-10.02
-12.36
-14.93
-17.26
-18.82
-19.22
-18.25
-15.99
-12.70
-8.81
-4.78
-0.97
2.35
5.03
7.00
8.28
8.88
8.89
8.47
7.82
7.19
6.78
6.72
6.99
7.50
8.05
8.48
8.66
8.54
8.15
7.54
6.77
5.92
5.03
4.15
3.26
2.31
1.23
-0.01
-1.40
-2.83
-4.17
-5.32
-6.30
-7.20
-8.25
-9.66
-11.52
-13.74
-15.99
-17.77
-18.59
-18.10
-16.23
-13.21
-9.49
-5.52
-1.72
1.65
4.43
6.55
8.01
8.85
9.15
9.06
8.76
8.43
8.24
8.26
8.50
8.88
9.26
9.51
9.56
9.46
9.27
9.09
8.92
8.64
8.10
7.16
5.80
4.10
2.21
0.34
-1.36
-2.82
-4.03
-5.07
-6.08
-7.20
-8.54
-10.14
-11.98
-13.96
-15.94
-17.68
-18.87
-19.18
-18.32
-16.20
-12.95
-8.91
-4.54
-0.30
3.44
6.44
8.54
9.67
9.86
9.26
8.16
6.92
5.87
5.23
5.05
5.21
5.53
5.84
6.01
6.02
5.87
5.65
5.39
5.11
4.80
4.39
3.79
2.94
1.82
0.48
-1.00
-2.50
-3.97
-5.37
-6.72
-8.07
-9.48
-10.96
-12.50
-13.99
-15.19
-15.80
-15.49
-14.11
-11.70
-8.51
-4.96
-1.46
1.65
4.23
6.20
7.54
8.21
8.20
7.59
6.54
5.33
4.27
3.60
3.43
3.73
4.33
5.00
5.51
5.68
5.44
4.82
3.97
3.01
2.04
1.07
0.05
-1.06
-2.26
-3.50
-4.70
-5.82
-6.89
-7.99
-9.27
-10.84
-12.76
-14.88
-16.90
-18.40
-18.95
-18.24
-16.23
-13.10
-9.26
-5.17
-1.28
2.11
4.84
6.85
8.19
8.94
9.24
9.25
9.15
9.07
9.09
9.24
9.47
9.70
9.86
9.90
9.84
9.70
9.50
9.23
8.83
8.21
7.27
6.00
4.40
2.62
0.87
-0.64
-1.80
-2.61
-3.28
-4.06
-5.20
-6.79
-8.76
-10.88
-12.82
-14.25
-14.87
-14.46
-12.93
-10.35
-7.01
-3.33
0.15
2.99
4.94
5.99
6.39
6.44
6.41
6.43
6.47
6.46
6.36
6.15
5.86
5.55
5.22
4.85
4.44
4.00
3.58
3.13
2.61
1.85
0.74
-0.77
-2.61
-4.61
-6.53
-8.17
-9.42
-10.26
-10.81
-11.29
-11.98
-13.08
-14.63
-16.38
-17.83
-18.41
-17.62
-15.35
-11.81
-7.55
-3.16
0.93
4.51
7.55
10.05
11.96
13.15
13.55
13.26
12.53
11.70
11.06
10.71
10.55
10.42
10.12
9.63
9.02
8.39
7.80
7.22
6.58
5.81
4.93
3.97
3.03
2.17
1.40
0.64
-0.20
-1.17
-2.25
-3.42
-4.65
-6.01
-7.60
-9.44
-11.38
-13.02
-13.84
-13.36
-11.40
-8.14
-4.09
0.09
3.81
6.73
8.73
9.87
10.31
10.20
9.71
8.97
8.15
7.40
6.86
6.63
6.72
7.08
7.52
7.87
7.96
7.75
7.28
6.69
6.04
5.34
4.49
3.38
1.99
0.40
-1.23
-2.73
-4.02
-5.10
-6.07
-7.03
-8.11
-9.41
-10.96
-12.71
-14.41
-15.68
-16.07
-15.28
-13.25
-10.24
-6.69
-3.07
0.25
3.05
5.21
6.65
7.29
7.18
6.52
5.65
4.97
4.75
5.07
5.78
6.59
7.24
7.60
7.65
7.48
7.16
6.71
6.14
5.39
4.49
3.45
2.35
1.23
0.11
-1.04
-2.26
-3.60
-5.07
-6.67
-8.37
-10.14
-11.90
-13.55
-14.91
-15.74
-15.79
-14.84
-12.83
-9.89
-6.35
-2.68
0.66
3.32
5.17
6.28
6.83
7.02
6.99
6.80
6.50
6.17
5.95
5.96
6.26
6.78
7.34
7.75
7.85
7.58
7.04
6.31
5.45
4.43
3.19
1.70
0.07
-1.54
-2.96
-4.10
-5.05
-5.97
-7.09
-8.58
-10.47
-12.66
-14.89
-16.83
-18.09
-18.34
-17.34
-15.10
-11.86
-8.05
-4.22
-0.82
1.90
3.90
5.30
6.30
7.00
7.45
7.67
7.74
7.79
8.00
8.46
9.12
9.80
10.30
10.49
10.36
10.03
9.62
9.14
8.56
7.78
6.78
5.64
4.50
3.46
2.56
1.70
0.75
-0.43
-1.91
-3.64
-5.57
-7.56
-9.45
-11.04
-12.01
-12.06
-10.96
-8.68
-5.47
-1.81
1.75
4.76
6.98
8.43
9.20
9.42
9.21
8.64
7.85
7.01
6.30
5.82
5.57
5.47
5.35
5.08
4.59
3.92
3.17
2.50
1.99
1.63
1.28
0.70
-0.33
-1.87
-3.73
-5.58
-7.01
-7.84
-8.10
-8.14
-8.38
-9.16
-10.64
-12.72
-15.14
-17.53
-19.49
-20.66
-20.72
-19.52
-17.05
-13.56
-9.48
-5.37
-1.71
1.20
3.31
4.79
5.87
6.70
7.33
7.73
7.85
7.71
7.42
7.14
7.01
7.07
7.32
7.72
8.22
8.77
9.30
9.71
9.88
9.73
9.19
8.27
7.01
5.52
3.94
2.43
1.13
0.08
-0.80
-1.74
-3.00
-4.77
-7.08
-9.69
-12.20
-14.14
-15.14
-14.98
-13.66
-11.34
-8.28
-4.80
-1.20
2.21
5.20
7.63
9.45
10.69
11.44
11.79
11.85
11.72
11.51
11.32
11.22
11.22
11.24
11.22
11.03
10.65
10.05
9.30
8.43
7.44
6.32
5.04
3.60
2.04
0.46
-1.05
-2.40
-3.57
-4.63
-5.70
-6.89
-8.29
-9.94
-11.77
-13.60
-15.12
-15.99
-15.88
-14.65
-12.34
-9.26
-5.80
-2.34
0.84
3.61
5.92
7.75
9.02
9.67
9.74
9.31
8.62
7.90
7.35
7.07
7.08
7.29
7.58
7.85
8.03
8.11
8.06
7.86
7.42
6.67
5.56
4.08
2.31
0.35
-1.63
-3.54
-5.29
-6.93
-8.56
-10.29
-12.23
-14.34
-16.42
-18.16
-19.16
-19.08
-17.77
-15.32
-12.02
-8.34
-4.71
-1.48
1.18
3.31
5.00
6.34
7.36
8.02
8.30
8.28
8.13
8.02
8.07
8.20
8.23
7.98
7.43
6.70
6.01
5.54
5.34
5.30
5.24
5.03
4.62
4.05
3.36
2.54
1.53
0.22
-1.44
-3.44
-5.70
-8.13
-10.66
-13.21
-15.66
-17.80
-19.28
-19.75
-18.92
-16.75
-13.48
-9.60
-5.66
-2.18
0.54
2.45
3.68
4.46
5.00
5.43
5.79
6.06
6.20
6.23
6.18
6.12
6.09
6.08
6.03
5.87
5.55
5.07
4.46
3.77
2.99
2.06
0.92
-0.47
-2.02
-3.57
-4.93
-5.99
-6.79
-7.49
-8.35
-9.63
-11.44
-13.67
-16.04
-18.07
-19.26
-19.17
-17.60
-14.62
-10.58
-6.00
-1.41
2.72
6.16
8.76
10.50
11.43
11.62
11.25
10.58
9.92
9.56
9.65
10.16
10.88
11.52
11.85
11.77
11.33
10.69
10.05
9.50
9.05
8.58
7.95
7.01
5.69
4.00
2.08
0.09
-1.80
-3.48
-4.92
-6.20
-7.50
-8.96
-10.69
-12.69
-14.79
-16.69
-17.98
-18.27
-17.30
-15.05
-11.70
-7.64
-3.34
0.82
4.53
7.59
9.88
11.36
12.05
12.06
11.62
11.01
10.50
10.22
10.23
10.41
10.65
10.79
10.77
10.57
10.21
9.73
9.15
8.45
7.61
6.58
5.31
3.79
2.06
0.22
-1.53
-3.04
-4.15
-4.90
-5.42
-5.98
-6.85
-8.21
-10.05
-12.13
-14.04
-15.34
-15.63
-14.71
-12.62
-9.62
-6.08
-2.41
1.02
3.96
6.29
7.97
9.02
9.47
9.38
8.84
7.97
6.98
6.08
5.41
5.04
4.93
4.99
5.13
5.30
5.48
5.65
5.75
5.66
5.24
4.43
3.24
1.76
0.17
-1.42
-2.94
-4.40
-5.84
-7.32
-8.88
-10.54
-12.30
-14.11
-15.86
-17.31
-18.12
-17.99
-16.67
-14.19
-10.81
-6.99
-3.20
0.18
2.94
5.02
6.38
7.00
6.87
6.06
4.78
3.38
2.25
1.67
1.74
2.28
3.03
3.67
3.99
3.91
3.48
2.82
2.04
1.23
0.41
-0.46
-1.39
-2.41
-3.47
-4.54
-5.59
-6.68
-7.85
-9.23
-10.90
-12.88
-15.09
-17.28
-19.10
-20.07
-19.85
-18.23
-15.33
-11.50
-7.21
-2.92
1.05
4.50
7.31
9.37
10.54
10.79
10.21
9.09
7.81
6.78
6.20
6.12
6.38
6.74
6.98
6.99
6.74
6.29
5.73
5.10
4.37
3.45
2.24
0.70
-1.11
-3.05
-4.97
-6.78
-8.50
-10.25
-12.14
-14.24
-16.46
-18.55
-20.16
-20.94
-20.64
-19.18
-16.64
-13.24
-9.30
-5.15
-1.14
2.41
5.29
7.39
8.78
9.60
10.07
10.34
10.50
10.58
10.53
10.39
10.22
10.13
10.18
10.40
10.72
11.00
11.10
10.92
10.42
9.62
8.61
7.47
6.22
4.90
3.47
1.93
0.27
-1.53
-3.52
-5.76
-8.26
-10.90
-13.39
-15.27
-16.06
-15.40
-13.26
-9.90
-5.87
-1.77
1.90
4.87
7.03
8.46
9.25
9.53
9.42
9.05
8.61
8.24
8.04
8.03
8.16
8.38
8.63
8.91
9.18
9.37
9.40
9.16
8.56
7.59
6.28
4.71
3.00
1.23
-0.53
-2.24
-3.89
-5.51
-7.14
-8.85
-10.70
-12.67
-14.64
-16.34
-17.44
-17.58
-16.54
-14.27
-10.97
-6.99
-2.75
1.34
4.97
7.91
10.00
11.20
11.54
11.18
10.36
9.41
8.64
8.26
8.34
8.77
9.36
9.90
10.25
10.42
10.41
10.26
9.88
9.18
8.10
6.67
5.08
3.51
2.13
0.95
-0.12
-1.24
-2.50
-3.95
-5.59
-7.41
-9.41
-11.52
-13.58
-15.26
-16.14
-15.82
-14.11
-11.15
-7.36
-3.30
0.49
3.63
6.00
7.64
8.64
9.11
9.11
8.71
8.05
7.34
6.80
6.64
6.92
7.57
8.35
9.00
9.31
9.17
8.67
7.92
7.08
6.17
5.16
3.94
2.48
0.83
-0.82
-2.28
-3.42
-4.30
-5.12
-6.15
-7.62
-9.55
-11.80
-14.06
-15.91
-16.98
-16.96
-15.72
-13.27
-9.86
-5.86
-1.75
2.02
5.13
7.45
9.00
9.86
10.12
9.83
9.07
8.01
6.87
5.92
5.37
5.29
5.61
6.16
6.74
7.20
7.41
7.29
6.79
5.90
4.67
3.20
1.64
0.10
-1.34
-2.67
-3.91
-5.11
-6.34
-7.68
-9.26
-11.11
-13.16
-15.12
-16.60
-17.18
-16.58
-14.80
-12.04
-8.66
-4.99
-1.31
2.15
5.14
7.41
8.77
9.17
8.81
8.04
7.22
6.64
6.39
6.43
6.66
6.98
7.32
7.58
7.66
7.46
6.97
6.27
5.46
4.60
3.64
2.45
0.95
-0.87
-2.85
-4.76
-6.44
-7.85
-9.14
-10.52
-12.19
-14.21
-16.42
-18.49
-19.96
-20.39
-19.47
-17.17
-13.69
-9.49
-5.10
-0.98
2.52
5.25
7.17
8.37
8.97
9.13
9.03
8.83
8.65
8.61
8.72
8.95
9.23
9.46
9.55
9.44
9.16
8.73
8.17
7.46
6.50
5.23
3.63
1.80
-0.11
-1.91
-3.49
-4.84
-6.03
-7.24
-8.66
-10.43
-12.59
-14.97
-17.29
-19.11
-20.00
-19.66
-17.99
-15.14
-11.44
-7.29
-3.11
0.73
3.99
6.55
8.37
9.54
10.15
10.37
10.31
10.11
9.88
9.76
9.82
10.09
10.50
10.92
11.19
11.18
10.88
10.33
9.62
8.82
7.88
6.73
5.27
3.53
1.63
-0.21
-1.77
-2.99
-4.00
-5.04
-6.36
-8.12
-10.27
-12.62
-14.94
-16.95
-18.36
-18.86
-18.20
-16.24
-13.09
-9.12
-4.87
-0.86
2.54
5.21
7.21
8.69
9.73
10.40
10.72
10.77
10.70
10.69
10.92
11.45
12.20
12.97
13.53
13.67
13.33
12.61
11.68
10.70
9.72
8.68
7.48
6.04
4.38
2.64
1.03
-0.32
-1.41
-2.35
-3.30
-4.44
-5.81
-7.37
-9.03
-10.75
-12.50
-14.30
-16.07
-17.54
-18.28
-17.83
-15.93
-12.64
-8.39
-3.84
0.41
3.97
6.74
8.86
10.46
11.62
12.32
12.52
12.30
11.87
11.52
11.47
11.84
12.55
13.37
14.04
14.30
14.05
13.33
12.31
11.19
10.13
9.15
8.19
7.15
5.97
4.68
3.35
2.06
0.85
-0.28
-1.37
-2.43
-3.46
-4.47
-5.49
-6.62
-8.02
-9.81
-12.01
-14.48
-16.91
-18.79
-19.65
-19.11
-17.08
-13.78
-9.74
-5.53
-1.68
1.47
3.79
5.30
6.12
6.36
6.18
5.74
5.26
4.92
4.85
5.08
5.50
5.97
6.30
6.37
6.15
5.70
5.17
4.69
4.35
4.10
3.79
3.24
2.30
0.97
-0.62
-2.24
-3.69
-4.87
-5.81
-6.62
-7.43
-8.35
-9.46
-10.84
-12.54
-14.50
-16.50
-18.14
-18.94
-18.50
-16.68
-13.64
-9.82
-5.75
-1.90
1.44
4.11
6.07
7.32
7.91
7.92
7.51
6.97
6.54
6.44
6.70
7.24
7.85
8.35
8.62
8.61
8.33
7.86
7.27
6.62
5.95
5.26
4.44
3.38
1.96
0.21
-1.72
-3.57
-5.10
-6.21
-7.04
-7.89
-9.08
-10.83
-13.10
-15.64
-18.04
-19.85
-20.67
-20.27
-18.60
-15.78
-12.11
-7.99
-3.81
0.06
3.38
6.00
7.94
9.23
9.99
10.32
10.33
10.12
9.81
9.51
9.31
9.26
9.37
9.57
9.79
9.88
9.73
9.30
8.61
7.74
6.81
5.88
4.97
4.03
2.98
1.80
0.53
-0.73
-1.88
-2.86
-3.73
-4.60
-5.61
-6.91
-8.56
-10.56
-12.82
-15.19
-17.41
-19.16
-20.08
-19.89
-18.44
-15.80
-12.27
-8.26
-4.21
-0.44
2.82
5.48
7.50
8.88
9.65
9.82
9.52
8.94
8.36
8.06
8.23
8.89
9.89
10.92
11.64
11.83
11.44
10.59
9.51
8.40
7.37
6.46
5.62
4.80
3.98
3.13
2.22
1.22
0.14
-0.98
-2.10
-3.17
-4.21
-5.26
-6.42
-7.82
-9.55
-11.62
-13.96
-16.35
-18.37
-19.55
-19.42
-17.77
-14.72
-10.70
-6.28
-2.03
1.66
4.66
6.93
8.54
9.48
9.77
9.50
8.88
8.23
7.83
7.89
8.38
9.17
10.02
10.72
11.16
11.29
11.10
10.61
9.88
8.99
8.04
7.10
6.19
5.23
4.14
2.88
1.49
0.08
-1.21
-2.34
-3.31
-4.19
-5.06
-5.95
-6.89
-7.96
-9.22
-10.77
-12.52
-14.22
-15.44
-15.70
-14.66
-12.26
-8.76
-4.66
-0.54
3.13
6.02
8.08
9.36
10.02
10.22
10.09
9.76
9.32
8.88
8.50
8.27
8.21
8.34
8.64
9.02
9.39
9.59
9.48
8.98
8.08
6.88
5.56
4.27
3.13
2.12
1.13
0.03
-1.26
-2.72
-4.24
-5.71
-7.04
-8.23
-9.30
-10.37
-11.48
-12.71
-14.04
-15.41
-16.63
-17.44
-17.51
-16.60
-14.60
-11.66
-8.13
-4.44
-1.00
1.87
4.01
5.39
6.05
6.10
5.71
5.05
4.34
3.75
3.42
3.40
3.70
4.29
5.08
5.95
6.77
7.37
7.64
7.50
6.94
6.00
4.80
3.46
2.09
0.76
-0.51
-1.73
-2.90
-4.03
-5.08
-6.04
-6.93
-7.80
-8.80
-10.05
-11.59
-13.29
-14.83
-15.81
-15.84
-14.74
-12.55
-9.55
-6.14
-2.68
0.51
3.22
5.25
6.46
6.80
6.37
5.43
4.34
3.45
2.98
2.98
3.35
3.92
4.53
5.03
5.38
5.55
5.54
5.37
5.01
4.42
3.54
2.40
1.06
-0.32
-1.62
-2.76
-3.80
-4.88
-6.13
-7.62
-9.32
-11.12
-12.94
-14.72
-16.40
-17.85
-18.80
-18.89
-17.79
-15.39
-11.92
-7.84
-3.76
-0.18
2.65
4.72
6.16
7.10
7.59
7.64
7.30
6.74
6.20
5.90
5.95
6.32
6.82
7.26
7.51
7.51
7.31
6.99
6.59
6.07
5.38
4.43
3.17
1.63
-0.09
-1.82
-3.41
-4.73
-5.81
-6.76
-7.81
-9.18
-11.00
-13.18
-15.44
-17.36
-18.50
-18.53
-17.32
-14.93
-11.64
-7.79
-3.74
0.15
3.60
6.40
8.43
9.67
10.19
10.14
9.71
9.09
8.47
7.97
7.67
7.56
7.57
7.62
7.60
7.42
7.05
6.46
5.67
4.71
3.61
2.39
1.12
-0.15
-1.31
-2.27
-3.00
-3.54
-4.03
-4.64
-5.55
-6.84
-8.53
-10.45
-12.35
-13.85
-14.60
-14.33
-12.95
-10.58
-7.50
-4.07
-0.59
2.70
5.70
8.33
10.50
12.14
13.14
13.53
13.40
12.94
12.38
11.90
11.60
11.47
11.44
11.43
11.35
11.21
10.99
10.71
10.34
9.83
9.08
8.03
6.63
4.93
3.05
1.16
-0.51
-1.82
-2.73
-3.33
-3.88
-4.70
-6.06
-8.04
-10.52
-13.12
-15.37
-16.81
-17.11
-16.18
-14.12
-11.20
-7.74
-4.08
-0.50
2.77
5.61
7.94
9.73
10.99
11.67
11.79
11.36
10.51
9.49
8.60
8.10
8.12
8.55
9.16
9.66
9.86
9.72
9.34
8.79
8.11
7.23
6.08
4.66
3.09
1.55
0.22
-0.81
-1.62
-2.33
-3.10
-4.03
-5.17
-6.51
-8.02
-9.65
-11.29
-12.72
-13.70
-13.94
-13.25
-11.56
-9.01
-5.86
-2.46
0.82
3.70
6.00
7.65
8.63
8.96
8.68
7.93
6.92
5.98
5.44
5.46
6.04
6.92
7.77
8.28
8.36
8.08
7.64
7.24
6.89
6.50
5.87
4.90
3.62
2.20
0.83
-0.37
-1.42
-2.44
-3.54
-4.82
-6.26
-7.81
-9.44
-11.09
-12.72
-14.14
-15.10
-15.29
-14.51
-12.75
-10.23
-7.29
-4.33
-1.62
0.68
2.54
3.96
4.97
5.58
5.86
5.89
5.82
5.77
5.87
6.18
6.70
7.35
8.00
8.47
8.63
8.44
7.98
7.42
6.90
6.45
5.96
5.22
4.11
2.63
0.96
-0.68
-2.12
-3.32
-4.37
-5.43
-6.60
-7.96
-9.47
-11.10
-12.80
-14.49
-15.99
-17.04
-17.31
-16.54
-14.64
-11.78
-8.36
-4.86
-1.73
0.79
2.68
4.10
5.23
6.21
7.04
7.68
8.11
8.41
8.71
9.11
9.68
10.35
11.03
11.62
12.10
12.44
12.65
12.68
12.47
11.97
11.20
10.20
9.12
8.00
6.87
5.68
4.38
2.96
1.47
0.01
-1.28
-2.32
-3.09
-3.67
-4.22
-4.92
-5.93
-7.34
-9.13
-11.18
-13.21
-14.86
-15.76
-15.58
-14.26
-11.95
-9.04
-6.00
-3.26
-1.05
0.62
1.82
2.69
3.27
3.62
3.78
3.87
4.00
4.25
4.59
4.94
5.22
5.41
5.57
5.76
6.01
6.25
6.39
6.32
6.01
5.50
4.86
4.18
3.53
2.94
2.43
1.94
1.40
0.75
-0.08
-1.09
-2.21
-3.29
-4.21
-4.88
-5.33
-5.68
-6.13
-6.87
-8.01
-9.58
-11.40
-13.19
-14.56
-15.13
-14.66
-13.07
-10.54
-7.45
-4.29
-1.46
0.71
2.20
3.12
3.69
4.10
4.43
4.68
4.82
4.86
4.88
4.99
5.28
5.74
6.29
6.77
7.03
6.99
6.71
6.28
5.87
5.55
5.32
5.04
4.59
3.88
2.95
1.94
1.01
0.23
-0.47
-1.23
-2.16
-3.25
-4.38
-5.37
-6.13
-6.73
-7.33
-8.14
-9.26
-10.68
-12.32
-14.00
-15.49
-16.55
-16.87
-16.21
-14.47
-11.78
-8.52
-5.17
-2.15
0.31
2.18
3.56
4.49
4.97
4.97
4.53
3.83
3.15
2.75
2.72
3.00
3.45
3.93
4.41
4.91
5.46
5.94
6.21
6.10
5.60
4.82
3.95
3.16
2.47
1.80
0.99
-0.05
-1.29
-2.60
-3.81
-4.82
-5.62
-6.31
-7.02
-7.84
-8.82
-9.90
-11.01
-11.99
-12.69
-12.90
-12.42
-11.13
-9.06
-6.36
-3.33
-0.31
2.44
4.71
6.41
7.51
8.00
7.91
7.37
6.54
5.62
4.83
4.29
4.11
4.30
4.81
5.49
6.13
6.50
6.45
5.97
5.16
4.20
3.21
2.20
1.09
-0.20
-1.69
-3.27
-4.75
-6.00
-6.94
-7.61
-8.17
-8.77
-9.58
-10.75
-12.35
-14.40
-16.74
-19.08
-21.01
-22.10
-22.05
-20.74
-18.33
-15.13
-11.57
-8.01
-4.74
-1.90
0.41
2.19
3.48
4.36
4.95
5.35
5.65
5.86
6.02
6.13
6.24
6.39
6.61
6.86
7.05
7.09
6.95
6.71
6.49
6.39
6.39
6.38
6.15
5.55
4.59
3.40
2.20
1.17
0.37
-0.31
-1.08
-2.16
-3.71
-5.75
-8.18
-10.80
-13.33
-15.43
-16.77
-17.07
-16.19
-14.18
-11.27
-7.77
-4.08
-0.54
2.50
4.80
6.19
6.67
6.40
5.71
4.98
4.54
4.55
4.95
5.58
6.20
6.62
6.72
6.48
5.99
5.38
4.83
4.44
4.25
4.23
4.23
4.13
3.78
3.12
2.11
0.79
-0.70
-2.18
-3.47
-4.49
-5.27
-5.99
-6.89
-8.15
-9.87
-11.89
-13.91
-15.54
-16.36
-16.09
-14.65
-12.16
-8.93
-5.35
-1.81
1.39
4.09
6.19
7.71
8.67
9.18
9.35
9.32
9.22
9.17
9.25
9.45
9.78
10.19
10.63
11.00
11.20
11.09
10.56
9.61
8.38
7.16
6.21
5.73
5.73
6.05
6.46
6.76
6.86
6.77
6.54
6.22
5.78
5.23
4.56
3.79
2.92
1.95
0.88
-0.28
-1.50
-2.73
-3.93
-5.12
-6.34
-7.67
-9.15
-10.77
-12.41
-13.84
-14.81
-15.05
-14.34
-12.65
-10.05
-6.75
-3.02
0.85
4.52
7.67
10.01
11.33
11.62
11.04
9.95
8.75
7.76
7.21
7.10
7.34
7.79
8.31
8.76
9.07
9.19
9.07
8.71
8.12
7.29
6.23
4.98
3.64
2.30
1.09
0.07
-0.79
-1.57
-2.41
-3.40
-4.58
-5.94
-7.43
-9.03
-10.72
-12.44
-14.02
-15.20
-15.63
-15.06
-13.35
-10.62
-7.14
-3.33
0.42
3.77
6.52
8.54
9.82
10.39
10.34
9.81
9.02
8.23
7.66
7.47
7.65
8.05
8.48
8.77
8.87
8.82
8.65
8.29
7.63
6.51
4.91
2.98
0.97
-0.90
-2.51
-3.91
-5.22
-6.54
-7.92
-9.40
-11.04
-12.91
-14.99
-17.17
-19.14
-20.55
-21.01
-20.36
-18.61
-15.98
-12.75
-9.25
-5.76
-2.55
0.16
2.19
3.45
3.97
3.93
3.60
3.26
3.12
3.25
3.59
4.00
4.33
4.48
4.44
4.22
3.84
3.29
2.54
1.57
0.36
-1.02
-2.51
-4.02
-5.47
-6.83
-8.08
-9.19
-10.15
-10.98
-11.78
-12.74
-14.06
-15.81
-17.87
-19.86
-21.20
-21.36
-20.04
-17.25
-13.37
-8.97
-4.64
-0.77
2.40
4.85
6.65
7.90
8.72
9.21
9.48
9.67
9.89
10.27
10.85
11.61
12.43
13.15
13.62
13.77
13.63
13.27
12.81
12.26
11.61
10.74
9.60
8.19
6.61
5.03
3.57
2.24
0.95
-0.44
-2.10
-4.14
-6.55
-9.20
-11.84
-14.09
-15.50
-15.67
-14.39
-11.73
-8.05
-3.86
0.31
4.06
7.20
9.68
11.52
12.72
13.29
13.26
12.77
12.09
11.54
11.33
11.56
12.14
12.86
13.55
14.05
14.30
14.26
13.88
13.14
12.04
10.64
9.06
7.44
5.85
4.30
2.75
1.23
-0.18
-1.39
-2.39
-3.30
-4.37
-5.88
-7.96
-10.54
-13.32
-15.89
-17.83
-18.77
-18.49
-16.95
-14.28
-10.75
-6.74
-2.65
1.18
4.55
7.33
9.45
10.89
11.63
11.75
11.44
10.97
10.59
10.51
10.77
11.25
11.80
12.19
12.29
12.04
11.51
10.80
10.06
9.34
8.61
7.77
6.66
5.22
3.50
1.67
-0.07
-1.54
-2.65
-3.41
-3.93
-4.35
-4.82
-5.54
-6.70
-8.41
-10.67
-13.27
-15.82
-17.81
-18.72
-18.24
-16.29
-13.11
-9.13
-4.85
-0.69
3.03
6.12
8.46
10.04
10.85
10.96
10.53
9.81
9.04
8.45
8.12
8.00
7.97
7.88
7.60
7.11
6.47
5.78
5.12
4.54
4.02
3.49
2.83
1.96
0.83
-0.53
-2.05
-3.60
-5.07
-6.36
-7.38
-8.17
-8.80
-9.40
-10.14
-11.20
-12.65
-14.47
-16.40
-18.03
-18.84
-18.38
-16.43
-13.09
-8.84
-4.28
0.02
3.73
6.77
9.18
11.02
12.26
12.86
12.83
12.34
11.69
11.20
11.08
11.37
11.90
12.46
12.85
13.01
12.94
12.66
12.20
11.53
10.58
9.28
7.60
5.57
3.34
1.06
-1.05
-2.89
-4.41
-5.62
-6.65
-7.61
-8.67
-9.95
-11.55
-13.46
-15.53
-17.51
-19.04
-19.79
-19.46
-17.96
-15.32
-11.78
-7.67
-3.35
0.82
4.53
7.55
9.76
11.15
11.83
11.97
11.80
11.52
11.26
11.08
11.01
11.03
11.14
11.31
11.46
11.47
11.24
10.73
10.02
9.24
8.53
7.91
7.23
6.26
4.77
2.75
0.36
-2.07
-4.23
-5.96
-7.28
-8.42
-9.62
-11.04
-12.74
-14.68
-16.77
-18.90
-20.88
-22.41
-23.11
-22.62
-20.71
-17.47
-13.27
-8.64
-4.15
-0.18
3.09
5.67
7.67
9.18
10.26
10.95
11.30
11.40
11.36
11.32
11.37
11.58
11.97
12.50
13.07
13.58
13.88
13.85
13.46
12.72
11.72
10.56
9.28
7.89
6.34
4.66
2.90
1.17
-0.41
-1.83
-3.17
-4.57
-6.15
-7.96
-9.93
-12.01
-14.11
-16.18
-18.16
-19.85
-20.96
-21.09
-19.94
-17.40
-13.70
-9.33
-4.91
-1.00
2.05
4.14
5.40
6.06
6.34
6.39
6.27
6.01
5.70
5.47
5.51
5.92
6.72
7.73
8.71
9.38
9.60
9.36
8.78
8.06
7.33
6.68
6.12
5.62
5.09
4.47
3.66
2.65
1.48
0.27
-0.89
-1.97
-3.01
-4.10
-5.33
-6.73
-8.30
-10.03
-11.89
-13.77
-15.46
-16.55
-16.57
-15.13
-12.11
-7.82
-2.90
1.88
5.86
8.72
10.49
11.40
11.78
11.81
11.58
11.08
10.35
9.50
8.70
8.10
7.78
7.66
7.65
7.65
7.67
7.75
7.90
8.07
8.12
7.84
7.10
5.91
4.38
2.71
1.06
-0.46
-1.82
-3.03
-4.11
-5.04
-5.82
-6.48
-7.13
-7.91
-8.94
-10.35
-12.11
-14.13
-16.17
-17.89
-18.93
-18.96
-17.78
-15.41
-12.10
-8.27
-4.37
-0.81
2.20
4.59
6.42
7.77
8.70
9.22
9.32
9.01
8.41
7.71
7.16
6.93
7.10
7.60
8.22
8.72
8.90
8.69
8.11
7.27
6.28
5.23
4.14
3.00
1.81
0.57
-0.66
-1.82
-2.82
-3.59
-4.13
-4.51
-4.85
-5.32
-6.08
-7.24
-8.81
-10.70
-12.68
-14.41
-15.51
-15.66
-14.66
-12.53
-9.44
-5.76
-1.89
1.79
4.89
7.17
8.50
8.89
8.54
7.74
6.78
5.89
5.18
4.63
4.21
3.93
3.82
3.95
4.28
4.69
4.98
4.96
4.54
3.78
2.83
1.86
0.99
0.19
-0.59
-1.43
-2.34
-3.27
-4.15
-4.99
-5.91
-7.04
-8.52
-10.41
-12.62
-14.97
-17.20
-18.99
-20.01
-20.02
-18.88
-16.61
-13.45
-9.78
-6.05
-2.66
0.14
2.24
3.70
4.65
5.27
5.72
6.11
6.50
6.91
7.34
7.78
8.25
8.73
9.13
9.36
9.31
8.90
8.15
7.11
5.90
4.58
3.22
1.84
0.49
-0.75
-1.87
-2.83
-3.71
-4.57
-5.55
-6.72
-8.18
-9.98
-12.11
-14.49
-16.92
-19.04
-20.43
-20.71
-19.70
-17.45
-14.29
-10.69
-7.07
-3.73
-0.80
1.67
3.71
5.31
6.45
7.15
7.52
7.68
7.81
8.01
8.30
8.60
8.83
8.94
8.90
8.77
8.57
8.33
8.02
7.61
7.06
6.34
5.40
4.20
2.74
1.04
-0.76
-2.49
-3.93
-5.00
-5.77
-6.43
-7.27
-8.50
-10.19
-12.22
-14.28
-16.00
-16.98
-16.87
-15.48
-12.82
-9.15
-4.93
-0.72
2.98
5.85
7.84
9.09
9.87
10.37
10.69
10.87
10.95
11.02
11.19
11.53
12.00
12.47
12.77
12.80
12.54
12.10
11.60
11.16
10.82
10.52
10.12
9.50
8.53
7.15
5.41
3.46
1.49
-0.32
-1.85
-3.14
-4.25
-5.33
-6.51
-7.89
-9.53
-11.40
-13.36
-15.16
-16.46
-16.91
-16.27
-14.45
-11.56
-7.89
-3.84
0.19
3.83
6.86
9.12
10.60
11.34
11.43
11.00
10.20
9.19
8.15
7.29
6.77
6.67
6.91
7.34
7.73
7.93
7.85
7.52
7.04
6.48
5.91
5.33
4.71
4.06
3.37
2.66
1.95
1.23
0.54
-0.14
-0.79
-1.44
-2.19
-3.12
-4.33
-5.84
-7.60
-9.47
-11.16
-12.32
-12.58
-11.73
-9.74
-6.86
-3.53
-0.27
2.55
4.74
6.32
7.42
8.17
8.64
8.85
8.82
8.67
8.51
8.49
8.66
8.97
9.28
9.46
9.43
9.16
8.65
7.91
6.92
5.70
4.28
2.77
1.29
-0.09
-1.28
-2.31
-3.20
-4.02
-4.79
-5.55
-6.30
-7.03
-7.76
-8.55
-9.46
-10.63
-12.12
-13.90
-15.73
-17.27
-18.10
-17.90
-16.58
-14.25
-11.21
-7.81
-4.33
-0.98
2.08
4.74
6.87
8.41
9.33
9.72
9.72
9.46
9.08
8.67
8.29
8.01
7.88
7.94
8.13
8.34
8.41
8.23
7.78
7.12
6.35
5.54
4.74
3.89
2.96
1.96
0.96
0.03
-0.72
-1.28
-1.70
-2.06
-2.47
-3.00
-3.69
-4.55
-5.58
-6.83
-8.28
-9.89
-11.47
-12.74
-13.35
-13.08
-11.82
-9.68
-6.93
-3.85
-0.77
2.06
4.49
6.41
7.76
8.55
8.87
8.82
8.58
8.27
8.05
7.99
8.12
8.38
8.65
8.85
8.90
8.79
8.57
8.27
7.89
7.38
6.74
5.99
5.22
4.50
3.89
3.34
2.72
1.91
0.83
-0.49
-1.94
-3.38
-4.73
-5.97
-7.14
-8.33
-9.62
-11.05
-12.64
-14.33
-16.01
-17.48
-18.47
-18.70
-17.98
-16.28
-13.75
-10.70
-7.48
-4.44
-1.81
0.26
1.71
2.55
2.90
2.96
2.93
3.04
3.39
3.93
4.53
5.00
5.22
5.23
5.17
5.21
5.48
5.96
6.46
6.75
6.65
6.12
5.29
4.36
3.52
2.84
2.25
1.63
0.87
-0.02
-0.96
-1.82
-2.57
-3.24
-3.93
-4.72
-5.66
-6.78
-8.08
-9.52
-11.06
-12.49
-13.55
-13.93
-13.39
-11.91
-9.68
-7.04
-4.36
-1.92
0.13
1.71
2.81
3.44
3.65
3.52
3.14
2.61
2.05
1.60
1.39
1.51
1.95
2.58
3.19
3.60
3.70
3.50
3.11
2.63
2.12
1.58
1.02
0.44
-0.11
-0.57
-0.94
-1.29
-1.70
-2.29
-3.10
-4.11
-5.21
-6.31
-7.33
-8.29
-9.31
-10.47
-11.76
-12.99
-13.85
-13.93
-12.99
-11.02
-8.24
-5.10
-2.07
0.48
2.38
3.60
4.26
4.46
4.32
3.93
3.35
2.69
2.02
1.47
1.13
1.06
1.25
1.62
2.05
2.38
2.54
2.49
2.28
1.96
1.53
0.96
0.16
-0.86
-2.05
-3.23
-4.24
-4.97
-5.43
-5.79
-6.21
-6.88
-7.86
-9.18
-10.76
-12.46
-14.02
-15.11
-15.38
-14.63
-12.85
-10.29
-7.34
-4.41
-1.81
0.30
1.90
2.96
3.53
3.64
3.46
3.19
3.06
3.23
3.70
4.37
5.06
5.60
5.91
5.96
5.74
5.30
4.68
3.98
3.33
2.79
2.41
2.10
1.70
1.06
0.09
-1.14
-2.49
-3.74
-4.76
-5.49
-6.03
-6.55
-7.25
-8.30
-9.76
-11.53
-13.33
-14.79
-15.49
-15.16
-13.76
-11.43
-8.49
-5.29
-2.14
0.75
3.27
5.31
6.82
7.76
8.17
8.18
7.96
7.71
7.58
7.65
7.93
8.38
8.90
9.39
9.73
9.79
9.49
8.81
7.81
6.62
5.39
4.25
3.22
2.27
1.29
0.18
-1.08
-2.45
-3.75
-4.84
-5.68
-6.33
-7.02
-8.00
-9.45
-11.32
-13.36
-15.16
-16.30
-16.46
-15.56
-13.68
-11.04
-7.95
-4.68
-1.48
1.45
3.96
5.97
7.44
8.37
8.82
8.92
8.81
8.68
8.67
8.83
9.11
9.39
9.51
9.37
8.98
8.43
7.87
7.43
7.14
6.92
6.62
6.11
5.33
4.30
3.12
1.91
0.71
-0.43
-1.54
-2.60
-3.62
-4.59
-5.55
-6.59
-7.78
-9.16
-10.60
-11.88
-12.68
-12.74
-11.91
-10.24
-7.87
-5.02
-1.94
1.11
3.89
6.19
7.82
8.72
8.95
8.72
8.30
7.91
7.75
7.85
8.18
8.60
8.95
9.07
8.85
8.28
7.47
6.60
5.81
5.19
4.67
4.09
3.32
2.33
1.21
0.14
-0.77
-1.50
-2.17
-2.88
-3.74
-4.78
-6.00
-7.41
-8.99
-10.65
-12.18
-13.21
-13.40
-12.54
-10.67
-8.06
-5.07
-2.00
0.94
3.68
6.11
8.12
9.58
10.43
10.70
10.56
10.20
9.81
9.47
9.24
9.11
9.09
9.18
9.34
9.48
9.47
9.21
8.61
7.71
6.58
5.35
4.12
2.97
1.92
0.94
-0.03
-1.01
-2.03
-3.08
-4.15
-5.29
-6.56
-8.04
-9.70
-11.40
-12.85
-13.69
-13.64
-12.60
-10.71
-8.27
-5.64
-3.08
-0.65
1.67
3.95
6.14
8.10
9.64
10.62
11.01
10.91
10.47
9.87
9.30
8.87
8.64
8.61
8.75
8.94
9.08
9.10
8.94
8.56
7.99
7.25
6.37
5.38
4.29
3.14
1.97
0.81
-0.26
-1.22
-2.06
-2.82
-3.61
-4.55
-5.74
-7.22
-8.90
-10.58
-11.97
-12.72
-12.59
-11.48
-9.48
-6.83
-3.85
-0.86
1.88
4.19
5.96
7.09
7.57
7.47
6.94
6.22
5.57
5.20
5.26
5.71
6.42
7.14
7.65
7.81
7.63
7.22
6.69
6.17
5.66
5.18
4.67
4.09
3.42
2.57
1.52
0.25
-1.14
-2.51
-3.66
-4.49
-5.05
-5.48
-5.99
-6.70
-7.66
-8.81
-10.03
-11.17
-11.97
-12.21
-11.62
-10.08
-7.68
-4.71
-1.59
1.29
3.62
5.33
6.46
7.11
7.36
7.27
6.87
6.24
5.56
5.01
4.79
4.97
5.46
6.05
6.49
6.60
6.33
5.83
5.28
4.85
4.54
4.23
3.70
2.82
1.60
0.14
-1.33
-2.63
-3.64
-4.33
-4.76
-5.02
-5.26
-5.58
-6.14
-7.01
-8.24
-9.75
-11.35
-12.79
-13.78
-14.07
-13.55
-12.21
-10.20
-7.76
-5.18
-2.70
-0.52
1.28
2.67
3.72
4.47
4.95
5.18
5.19
5.01
4.74
4.47
4.32
4.33
