1637948897.00
64.000000
-0.00
-0.00
-0.00
-0.00
-0.00
-0.00
-0.00
-0.00
-0.00
-0.00
0.00
0.01
0.01
-0.00
-0.03
-0.05
-0.05
0.00
0.13
0.36
0.66
1.01
1.37
1.72
2.06
2.40
2.79
3.24
3.80
4.42
5.06
5.66
6.20
6.68
7.15
7.68
8.31
9.14
10.09
11.04
11.88
12.56
13.14
13.76
14.65
15.96
17.91
20.32
22.90
25.38
27.58
29.57
31.68
34.32
37.81
42.54
48.15
54.10
59.83
64.97
69.58
74.14
79.34
85.71
93.76
103.00
112.62
121.73
129.77
136.75
143.30
150.75
157.77
166.65
177.95
191.79
206.97
220.56
228.24
225.35
208.54
176.90
132.82
80.10
23.08
-35.03
-92.66
-149.53
-205.72
-260.92
-314.29
-364.39
-410.32
-451.41
-487.08
-516.45
-538.09
-550.18
-550.96
-539.32
-515.08
-479.52
-434.81
-383.61
-328.52
-271.69
-214.74
-158.83
-104.99
-54.18
-7.57
33.77
69.10
98.20
121.44
139.62
153.67
164.34
171.99
176.62
178.09
176.47
172.16
166.00
158.95
151.87
145.12
138.51
131.47
123.38
113.98
103.57
92.96
83.09
74.63
67.70
61.84
56.28
50.30
43.40
35.26
25.76
15.25
5.04
-2.46
-4.34
1.58
15.35
34.33
53.90
69.31
77.67
78.94
75.45
70.27
65.49
61.54
57.67
53.14
48.21
44.06
41.97
42.28
44.03
45.48
45.14
42.57
38.55
34.37
30.67
26.72
20.63
10.44
-4.56
-23.16
-42.32
-58.47
-68.81
-72.34
-70.06
-64.45
-58.47
-54.73
-54.88
-59.16
-66.09
-72.84
-75.76
-71.79
-59.72
-40.84
-18.47
3.02
19.59
28.73
30.22
26.36
21.39
20.16
26.36
40.81
60.67
80.17
92.69
93.60
82.38
62.95
41.91
25.51
16.93
15.34
16.88
17.19
13.71
6.88
-0.55
-5.31
-5.54
-2.13
2.20
4.48
3.38
0.06
-2.55
-1.64
3.68
11.71
19.00
22.38
20.77
16.02
11.86
11.72
16.67
24.83
32.64
36.97
36.80
33.23
28.19
22.90
17.25
10.40
1.97
-7.24
-15.68
-22.11
-26.53
-30.00
-33.71
-37.93
-41.69
-43.38
-42.32
-39.31
-36.56
-36.89
-42.29
-53.04
-66.68
-78.20
-81.35
-70.84
-44.48
-4.43
43.05
89.11
124.78
143.51
142.85
124.84
95.06
60.75
28.83
4.20
-11.13
-17.86
-18.30
-15.06
-10.14
-4.75
0.21
3.73
5.01
3.71
0.44
-3.30
-5.65
-5.25
-1.88
2.93
7.28
9.80
10.24
9.26
8.08
7.95
9.87
13.91
18.46
22.06
24.12
25.02
25.46
25.98
26.83
28.25
30.06
30.31
27.81
22.56
15.41
6.65
-4.65
-20.81
-40.25
-62.74
-90.29
-123.99
-163.30
-206.41
-251.85
-299.14
-348.37
-399.64
-436.48
-449.85
-440.81
-417.70
-387.24
-350.56
-305.29
-250.18
-188.04
-126.18
-75.65
-44.30
-33.45
-37.50
-48.53
-59.87
-68.37
-73.46
-75.71
-77.32
-79.22
-81.01
-80.74
-77.70
-72.63
-67.11
-62.10
-57.32
-52.08
-43.79
-35.73
-28.04
-20.88
-14.84
-10.63
-8.45
-7.90
-8.66
-10.20
-12.00
-12.69
-11.68
-9.03
-5.12
-0.32
5.08
10.58
15.66
19.76
23.27
26.58
30.21
34.76
40.85
48.84
58.57
69.42
80.42
91.26
101.95
113.02
125.23
139.09
154.32
169.63
183.01
192.40
196.84
196.60
193.37
189.55
187.64
189.43
195.80
206.52
220.24
234.49
245.75
250.49
245.95
231.40
208.97
183.37
160.33
144.26
136.51
134.86
134.97
131.94
122.05
103.86
78.51
49.16
19.93
-5.18
-23.11
-31.06
-27.44
-11.77
15.11
50.94
91.78
132.01
165.51
187.97
201.59
212.61
228.03
251.30
279.90
305.99
319.55
313.08
285.08
244.99
203.93
167.98
135.84
102.39
64.46
23.94
-12.84
-38.42
-40.68
-14.53
35.07
95.66
154.42
203.70
241.97
272.13
300.06
342.44
412.18
511.18
628.11
744.18
841.39
908.06
940.90
884.50
717.52
463.10
179.71
-77.37
-281.89
-432.62
-538.56
-610.04
-655.62
-673.19
-662.07
-626.61
-575.86
-519.09
-462.91
-412.18
-373.35
-350.28
-337.69
-328.98
-319.57
-308.86
-298.24
-288.79
-280.83
-275.19
-272.09
-266.86
-256.11
-240.57
-225.56
-218.02
-223.67
-240.41
-266.13
-297.44
-328.74
-356.16
-379.54
-402.08
-427.27
-455.28
-481.41
-498.50
-498.64
-475.65
-428.41
-361.68
-284.38
-205.60
-131.52
-64.23
-4.28
49.37
99.40
150.21
207.04
274.31
353.64
442.35
532.37
609.97
660.95
677.03
659.01
615.29
557.41
495.39
435.07
376.46
313.36
238.12
147.03
42.70
-67.36
-173.31
-264.98
-332.87
-360.13
-336.07
-269.11
-183.77
-103.21
-37.40
15.13
60.00
104.51
151.42
198.00
240.06
275.45
304.22
326.49
341.37
341.27
324.47
294.00
255.34
214.62
177.26
146.74
123.57
105.62
89.69
73.87
56.21
34.05
5.11
-30.74
-70.98
-111.64
-149.50
-183.01
-211.92
-237.91
-264.12
-293.93
-329.43
-369.54
-408.99
-438.63
-447.75
-428.05
-378.85
-309.40
-236.60
-178.91
-149.83
-154.21
-189.10
-247.59
-322.35
-407.25
-495.95
-579.86
-647.98
-689.77
-699.25
-677.73
-633.09
-576.00
-515.65
-456.86
-400.27
-344.22
-287.56
-230.86
-176.13
-125.56
-80.35
-40.23
-3.91
30.12
62.87
94.26
123.61
150.09
173.36
193.99
213.28
233.01
254.89
280.13
308.92
339.83
369.85
394.78
409.66
409.76
391.85
355.40
303.11
240.21
172.93
106.78
45.55
-8.54
-53.79
-88.11
-109.04
-114.84
-105.88
-85.30
-58.14
-29.48
-2.17
24.19
52.72
87.06
129.02
177.29
227.30
272.62
306.44
323.15
319.54
294.72
250.09
189.17
117.51
42.56
-26.75
-81.33
-113.84
-120.64
-102.84
-65.69
-16.74
36.47
87.98
133.71
170.96
197.70
212.68
216.08
210.38
200.29
191.57
188.83
193.35
202.18
209.37
208.58
195.93
171.78
140.50
108.57
82.10
64.83
57.72
59.50
67.66
79.55
92.89
105.92
117.36
126.47
133.19
138.51
143.89
150.44
157.87
163.98
164.62
154.60
129.56
88.24
34.40
-23.93
-76.94
-116.59
-139.44
-147.12
-144.70
-137.59
-128.80
-117.18
-100.49
-78.96
-56.91
-41.58
-39.74
-54.20
-81.97
-115.26
-142.13
-153.15
-145.15
-121.84
-91.10
-60.69
-35.79
-18.11
-6.54
5.17
22.40
46.72
75.13
102.77
126.05
143.94
157.50
168.55
183.09
205.11
234.47
267.28
299.65
330.95
363.09
397.74
403.57
357.70
257.63
125.44
-8.90
-124.24
-211.70
-271.31
-308.01
-328.73
-335.30
-328.73
-311.29
-287.81
-264.09
-244.96
-233.35
-229.99
-233.32
-236.66
-233.16
-218.66
-194.08
-165.35
-139.06
-120.69
-112.33
-112.27
-114.87
-114.75
-109.10
-98.67
-85.74
-72.46
-57.65
-37.71
-10.22
21.88
49.99
63.61
54.35
19.17
-40.10
-115.41
-195.46
-270.05
-328.82
-364.65
-373.91
-357.08
-306.75
-231.20
-149.31
-82.78
-28.96
20.16
69.89
122.97
179.98
238.64
292.52
335.76
365.10
380.88
383.71
375.47
359.27
338.02
313.23
283.68
248.97
210.22
169.12
124.29
72.61
12.07
-56.05
-125.92
-189.15
-236.04
-259.28
-256.82
-233.66
-198.48
-159.53
-122.33
-89.27
-61.12
-37.64
-18.42
-3.08
8.23
15.84
20.81
24.55
28.12
31.67
34.44
35.12
32.51
26.12
16.84
6.90
-1.10
-5.40
-5.85
-3.88
-1.58
-0.52
-1.01
-2.20
-2.75
-1.65
1.30
5.41
9.47
12.20
12.84
11.38
8.59
5.61
3.57
3.24
4.79
7.87
11.78
16.04
20.57
25.46
30.59
35.57
39.72
42.40
43.34
42.28
39.67
36.30
32.52
28.02
22.17
14.74
6.55
-0.28
-3.56
-0.34
11.56
31.55
55.52
76.97
89.37
88.61
74.44
48.37
14.59
-22.43
-59.61
-95.06
-126.46
-150.48
-164.35
-168.14
-167.42
-167.61
-170.84
-174.64
-173.39
-161.58
-137.73
-106.53
-65.91
-25.09
4.92
21.12
30.19
40.07
53.30
67.16
77.59
82.73
81.74
78.01
75.61
76.39
79.14
80.93
79.31
73.40
63.97
49.71
33.17
17.11
3.19
-8.71
-19.58
-30.26
-40.93
-46.78
-49.79
-50.51
-48.87
-44.97
-39.60
-33.83
-28.53
-24.24
-21.21
-20.50
-21.63
-23.69
-25.73
-27.02
-27.19
-26.25
-24.61
-23.14
-23.38
-25.66
-29.59
-34.15
-38.05
-40.41
-40.87
-39.92
-38.64
-38.51
-40.31
-44.60
-51.62
-61.00
-71.11
-78.78
-79.75
-70.35
-49.56
-19.92
12.75
41.60
61.51
71.00
72.18
68.99
64.86
61.26
57.89
53.86
48.90
43.83
40.01
38.29
38.46
39.30
39.35
37.48
33.63
28.67
23.95
20.66
19.37
19.76
20.88
21.58
20.97
18.86
15.67
12.31
9.74
8.55
8.85
10.16
11.70
12.68
12.56
11.22
9.06
6.78
5.14
4.71
5.60
7.49
9.64
11.27
11.67
10.62
8.39
5.73
3.73
3.60
6.26
11.69
18.49
23.78
24.12
17.01
2.34
-16.95
-35.71
-48.62
-52.58
-48.00
-38.39
-28.41
-21.35
-17.97
-16.93
-16.28
-14.65
-11.69
-7.57
-2.45
3.55
9.97
15.45
18.15
16.60
10.82
2.73
-4.73
-9.15
-9.96
-8.65
-7.72
-8.87
-11.78
-13.83
-11.59
-3.05
10.48
23.99
30.20
22.35
-2.32
-40.42
-82.61
-116.75
-132.29
-124.28
-94.97
-52.28
-6.33
33.98
63.08
78.79
81.43
72.43
53.89
28.81
1.29
-23.57
-41.06
-48.36
-45.50
-35.04
-21.46
-10.07
-5.94
-12.33
-29.63
-54.97
-82.85
-106.85
-121.60
-124.49
-116.70
-102.88
-88.65
-77.64
-70.15
-63.31
-54.38
-42.43
-29.14
-17.83
-11.41
-10.72
-13.81
-16.38
-14.31
-3.30
19.98
56.03
102.09
152.93
202.69
246.79
283.07
311.65
328.97
332.98
322.57
297.94
261.18
216.30
168.44
122.43
81.51
46.72
17.94
-5.96
-26.05
-42.73
-55.72
-64.52
-69.08
-70.21
-69.29
-67.29
-64.92
-62.44
-59.76
-56.74
-53.43
-50.11
-47.19
-44.97
-43.24
-41.68
-40.08
-38.40
-36.80
-35.45
-34.46
-33.77
-33.16
-32.25
-30.74
-28.58
-25.91
-22.99
-20.04
-17.19
-14.45
-11.79
-9.02
-6.08
-2.97
0.13
2.95
5.20
6.59
7.03
6.59
5.55
4.33
3.37
2.97
3.16
3.75
4.26
4.26
3.45
1.89
-0.26
-2.65
-4.90
-6.92
-8.74
-10.49
-12.30
-14.20
-16.03
-17.59
-18.57
-18.75
-18.16
-16.98
-15.54
-14.09
-12.71
-11.34
-9.86
-8.25
-6.71
-5.56
-5.12
-5.40
-6.09
-6.64
-6.56
-5.66
-4.17
-2.53
-1.24
-0.68
-0.74
-0.92
-0.60
0.66
2.91
5.82
8.86
11.52
13.19
13.74
13.55
13.29
13.64
14.98
17.30
20.28
23.57
26.50
29.07
31.75
34.95
38.43
40.95
40.49
34.94
22.74
2.44
-25.99
-61.06
-99.46
-136.03
-164.48
-178.88
-175.81
-150.96
-107.57
-54.15
-1.49
41.14
68.82
81.60
82.97
77.43
68.52
57.40
44.65
31.32
19.33
10.83
6.98
7.11
8.70
8.35
2.92
-8.56
-24.63
-42.23
-58.19
-70.43
-78.29
-82.11
-82.40
-79.61
-73.57
-63.89
-50.60
-34.52
-17.30
-0.97
12.76
23.02
29.89
34.36
37.84
41.52
45.90
50.60
54.70
57.19
57.39
55.07
50.45
44.05
36.59
28.86
21.71
15.99
12.26
10.62
10.63
11.45
12.09
11.86
10.51
8.29
5.71
3.28
1.30
-0.18
-1.19
-1.62
-1.23
0.31
3.05
6.62
10.22
12.88
13.97
13.39
11.58
9.19
6.52
3.33
-1.15
-7.69
-16.50
-26.72
-36.57
-43.78
-46.49
-43.97
-36.98
-27.73
-19.22
-14.29
-14.52
-19.41
-26.42
-31.76
-32.05
-25.70
-13.73
0.88
14.61
25.08
31.99
36.75
41.59
48.23
57.42
68.82
81.12
92.01
97.97
94.74
78.64
48.45
6.98
-38.74
-79.30
-105.61
-111.48
-95.15
-59.41
-10.96
40.88
86.02
115.93
125.86
116.24
92.42
62.41
34.11
12.12
-3.02
-13.24
-20.09
-22.83
-19.35
-8.61
6.56
19.33
20.58
3.30
-33.15
-81.52
-129.40
-164.74
-180.99
-179.09
-164.40
-143.64
-121.76
-100.23
-77.85
-53.16
-26.53
-0.15
23.73
46.07
69.46
95.76
124.42
152.08
173.77
184.62
181.57
157.43
112.71
56.83
3.66
-36.26
-60.25
-72.15
-78.67
-85.68
-95.57
-105.87
-111.16
-107.50
-93.73
-71.68
-45.09
-17.99
5.92
22.76
33.07
39.02
41.93
42.00
39.31
34.93
30.80
29.18
32.01
41.53
59.00
81.35
103.72
120.46
126.56
119.13
98.76
66.52
31.60
2.13
-19.46
-35.84
-50.89
-65.65
-76.61
-78.05
-66.45
-43.42
-16.70
3.64
10.99
4.98
-9.76
-27.22
-42.84
-54.47
-61.19
-63.42
-62.75
-62.15
-63.56
-68.16
-74.73
-79.12
-76.05
-62.02
-38.23
-10.00
14.35
29.33
34.19
32.52
29.55
28.86
31.05
34.17
35.80
34.75
32.02
29.10
27.48
27.82
29.88
32.92
36.34
40.13
44.64
50.22
56.72
62.08
63.56
58.61
46.25
27.89
7.11
-11.67
-25.04
-31.98
-34.00
-33.94
-34.26
-35.55
-36.27
-33.68
-25.58
-12.02
4.39
19.17
27.87
27.96
20.14
8.01
-3.85
-10.73
-11.02
-6.58
-1.15
2.01
1.98
0.62
1.04
5.19
12.34
18.74
19.88
13.01
-1.11
-18.90
-35.95
-49.06
-57.42
-61.32
-61.47
-57.89
-50.17
-38.41
-24.19
-10.45
-0.27
4.67
5.06
3.50
3.05
5.31
9.47
12.69
11.76
4.95
-6.48
-18.53
-26.09
-25.51
-16.91
-4.92
2.87
-0.77
-18.83
-48.24
-80.46
-104.96
-113.83
-104.94
-81.81
-50.88
-18.22
12.45
39.47
58.80
64.50
49.49
8.28
-58.90
-143.58
-230.04
-300.10
-339.76
-344.10
-317.83
-272.07
-219.03
-166.89
-117.87
-69.36
-17.25
40.57
102.28
162.58
214.33
251.37
270.62
272.99
262.71
245.51
226.43
208.35
192.04
176.79
161.73
146.87
133.10
121.64
113.22
107.76
104.46
102.38
100.56
98.08
93.87
86.69
75.43
59.74
40.64
20.72
3.61
-7.31
-9.94
-4.23
7.72
22.44
36.22
46.28
51.44
52.07
49.14
44.18
38.92
34.79
32.63
32.58
34.27
37.24
41.09
44.83
48.14
51.39
55.07
58.99
62.24
63.64
62.57
59.25
53.46
46.11
38.98
33.37
28.75
22.50
10.87
-9.43
-40.32
-83.26
-136.39
-194.00
-247.96
-290.01
-313.57
-315.09
-294.52
-246.60
-177.78
-104.53
-44.28
-5.68
12.42
16.63
11.58
0.17
-15.23
-32.89
-48.67
-56.72
-52.30
-34.63
-7.40
23.19
51.53
74.26
88.75
94.54
92.90
85.78
74.99
62.02
48.52
36.75
29.06
25.76
26.43
30.06
34.47
36.37
31.85
17.76
-6.55
-36.86
-66.30
-88.07
-99.33
-101.73
-98.44
-92.10
-84.13
-75.22
-66.63
-62.04
-66.82
-82.26
-106.39
-133.06
-153.53
-159.40
-145.83
-109.30
-59.18
-9.99
25.96
43.21
45.03
39.49
34.17
33.03
35.95
40.28
45.40
50.70
55.12
56.75
51.34
34.29
4.03
-35.62
-76.48
-108.92
-126.66
-128.95
-117.27
-94.87
-65.13
-30.54
6.06
41.98
75.20
104.18
128.95
154.81
188.40
234.18
291.99
356.52
418.82
468.78
496.90
479.99
409.05
295.70
167.96
54.29
-30.10
-85.14
-119.21
-142.10
-159.90
-171.19
-172.53
-163.00
-146.06
-127.93
-114.52
-108.70
-110.44
-117.14
-122.84
-122.63
-115.26
-103.29
-91.45
-85.15
-86.03
-93.87
-107.07
-122.33
-136.94
-149.39
-158.44
-159.72
-150.85
-129.99
-98.30
-60.54
-22.98
8.52
30.53
43.03
48.52
49.82
49.23
47.56
45.05
42.75
43.08
47.45
56.28
68.30
80.74
90.89
96.80
98.25
96.79
94.91
94.93
98.15
104.05
110.20
113.09
109.42
97.57
78.57
55.85
33.91
16.86
7.02
4.01
5.10
6.32
4.16
-3.12
-15.18
-30.18
-45.92
-61.31
-74.76
-85.32
-93.33
-100.07
-106.36
-111.30
-112.85
-109.01
-99.50
-86.48
-73.70
-64.67
-61.55
-64.78
-73.14
-83.83
-93.82
-97.59
-90.51
-70.66
-39.72
-2.78
33.52
62.80
80.14
85.93
84.86
82.20
81.32
82.66
84.34
83.50
77.71
67.32
52.73
36.11
20.22
7.51
-0.99
-5.77
-8.25
-9.80
-10.84
-10.96
-9.30
-5.73
-0.97
3.83
7.88
11.11
14.20
18.15
22.85
27.88
32.48
36.16
38.81
40.45
40.85
39.61
36.45
31.33
24.56
16.41
6.97
-3.84
-15.85
-28.10
-38.30
-42.96
-38.59
-23.42
2.06
35.25
72.01
107.31
135.95
153.89
159.44
153.32
137.79
116.95
96.34
81.19
74.14
73.67
75.35
73.44
61.68
33.69
-13.34
-75.73
-142.67
-198.94
-230.52
-228.48
-192.62
-134.08
-73.71
-32.99
-25.34
-51.78
-103.01
-166.29
-229.02
-281.90
-307.20
-295.30
-250.93
-191.01
-133.18
-87.59
-58.85
-50.31
-53.31
-58.46
-59.41
-52.38
-36.27
-13.19
18.74
49.95
70.33
78.03
79.85
84.96
98.86
119.97
140.55
151.76
144.62
115.54
68.03
10.10
-47.75
-93.88
-118.63
-117.62
-90.39
-46.91
-3.42
24.57
27.81
7.73
-24.45
-53.47
-66.92
-59.48
-31.61
12.90
69.31
131.84
193.55
245.88
279.23
285.34
248.46
168.18
63.19
-38.32
-115.87
-165.34
-195.05
-217.19
-240.09
-266.84
-290.36
-301.22
-293.49
-267.49
-228.55
-184.11
-140.71
-101.47
-68.39
-39.61
-11.95
16.08
43.53
68.69
90.92
111.44
132.77
157.55
188.82
227.93
272.07
314.49
347.48
365.64
367.80
356.76
337.52
315.68
295.71
277.69
258.24
233.76
203.73
171.35
141.64
118.80
105.00
101.43
106.12
114.70
122.24
125.04
121.07
109.22
88.94
49.40
-9.30
-76.08
-135.77
-178.93
-204.38
-215.62
-217.23
-213.01
-205.46
-194.35
-180.12
-164.69
-150.62
-139.45
-131.12
-124.61
-118.69
-112.49
-104.32
-93.87
-82.47
-72.14
-64.18
-58.65
-54.81
-51.68
-48.41
-43.69
-37.21
-29.85
-23.07
-17.98
-14.84
-13.25
-12.46
-11.62
-9.71
-6.41
-2.27
1.60
4.22
5.16
4.64
3.34
2.32
2.52
4.25
6.96
9.44
10.33
8.73
4.51
-1.97
-9.30
-16.46
-22.76
-28.21
-33.31
-38.70
-44.97
-52.16
-61.20
-72.09
-83.54
-92.39
-94.17
-84.81
-62.89
-31.06
4.36
35.60
56.90
66.55
67.13
63.57
60.43
59.83
61.24
62.73
62.58
60.68
58.05
56.24
56.21
57.83
60.25
62.49
64.56
67.02
70.19
73.02
72.82
66.21
51.05
27.87
0.41
-25.42
-44.33
-53.41
-52.92
-45.48
-34.52
-23.00
-13.14
-6.76
-5.14
-9.22
-18.56
-31.01
-43.32
-52.49
-57.19
-57.52
-56.43
-56.62
-60.28
-67.95
-78.50
-89.40
-96.87
-96.27
-83.37
-57.11
-19.08
23.70
61.18
83.94
87.28
73.23
49.44
25.30
7.72
-0.84
-2.81
-2.00
-0.92
0.42
3.20
7.68
12.07
12.66
6.27
-8.71
-30.69
-54.98
-75.03
-84.38
-79.25
-59.61
-31.11
-1.60
21.54
34.55
38.39
37.50
36.74
38.67
42.33
44.72
43.22
37.63
30.50
25.68
26.37
33.74
47.02
63.60
79.87
92.05
96.67
91.44
76.37
54.27
29.81
8.77
-5.33
-12.13
-13.83
-13.32
-12.43
-11.15
-8.46
-3.93
1.21
4.18
2.29
-5.63
-18.13
-32.08
-44.39
-53.02
-58.15
-61.64
-66.01
-72.64
-82.68
-95.71
-110.18
-123.46
-131.96
-131.92
-120.67
-98.51
-68.35
-36.16
-8.23
11.03
20.68
22.99
21.55
19.19
16.77
13.74
9.26
3.81
-0.78
-2.26
0.61
7.30
15.85
23.92
30.01
34.09
37.73
43.03
51.52
63.18
76.38
88.51
96.62
99.93
98.91
95.40
91.60
89.34
89.70
92.94
98.49
104.50
108.13
105.12
92.09
68.20
36.21
1.96
-27.71
-47.79
-56.95
-57.44
-53.51
-48.75
-44.76
-41.20
-37.10
-32.07
-26.87
-22.90
-20.97
-20.87
-21.35
-20.99
-18.75
-14.77
-10.15
-6.43
-4.94
-6.21
-9.97
-15.02
-20.04
-23.92
-26.20
-26.96
-26.54
-25.29
-23.28
-20.25
-15.78
-9.59
-1.46
7.76
17.18
25.93
33.27
38.84
42.60
44.72
45.46
44.99
43.28
40.15
35.66
29.85
22.90
15.15
7.04
-0.98
-8.49
-14.76
-19.81
-23.57
-26.05
-27.37
-27.66
-27.16
-26.10
-24.65
-23.27
-21.87
-20.45
-19.08
-17.79
-16.61
-15.56
-14.62
-13.75
-12.91
-12.06
-11.16
-10.22
-9.32
-8.49
-7.80
-7.24
-6.77
-6.32
-5.83
-5.25
-4.61
-4.02
-3.59
-3.41
-3.46
-3.65
-3.81
-3.77
-3.46
-2.99
-2.60
-2.60
-3.20
-4.42
-5.98
-7.44
-8.36
-8.56
-8.27
-7.99
-8.42
-10.00
-12.75
-16.14
-19.31
-21.44
-22.17
-21.86
-21.46
-22.13
-24.66
-29.10
-34.61
-39.86
-43.73
-45.68
-46.08
-46.02
-46.71
-49.14
-54.04
-61.79
-72.26
-84.06
-94.22
-98.50
-92.90
-75.66
-48.81
-17.90
10.00
29.17
37.44
36.45
30.11
22.17
14.69
7.63
0.09
-8.38
-17.16
-24.98
-30.94
-35.16
-38.77
-43.09
-49.20
-56.96
-65.17
-71.99
-75.63
-74.94
-69.70
-60.60
-48.37
-33.87
-17.61
0.19
19.41
39.69
60.22
79.78
96.15
108.44
116.14
119.43
118.99
115.87
111.08
105.44
99.46
93.81
88.30
82.76
77.23
71.81
66.67
61.89
57.54
53.58
49.94
46.56
43.40
40.47
37.73
35.21
32.86
30.71
28.75
26.98
25.41
24.06
22.94
22.02
21.30
20.67
20.10
19.51
18.78
17.75
16.26
14.17
11.32
8.00
3.89
-0.94
-6.35
-12.13
-18.07
-23.83
-29.13
-33.69
-37.27
-39.73
-41.00
-41.15
-40.35
-38.88
-36.90
-34.63
-32.15
-29.51
-26.75
-23.86
-20.93
-18.18
-15.92
-14.20
-13.14
-12.73
-12.71
-12.77
-12.61
-12.16
-11.67
-11.64
-12.05
-13.05
-14.44
-15.65
-15.96
-14.88
-12.39
-9.14
-6.14
-3.55
-1.62
-0.00
2.23
6.18
12.47
20.80
29.87
37.92
44.63
49.78
54.10
59.11
66.39
76.96
91.17
109.13
124.45
136.26
143.05
141.60
127.86
99.43
57.81
8.80
-39.58
-80.46
-109.58
-127.25
-135.55
-135.42
-125.51
-103.63
-69.60
-27.29
15.61
50.91
71.71
75.11
62.65
38.88
9.79
-19.10
-43.75
-61.74
-71.92
-75.34
-74.47
-72.07
-69.78
-67.39
-63.17
-55.15
-42.64
-26.22
-8.42
7.32
18.22
23.00
22.43
18.53
12.90
6.11
-1.70
-10.00
-17.34
-21.83
-22.23
-18.38
-11.57
-4.64
-0.62
-0.96
-4.59
-8.43
-9.43
-6.21
0.98
10.32
17.99
19.76
13.09
-1.11
-18.54
-33.16
-39.40
-32.70
-10.70
24.53
67.26
109.82
144.94
167.17
174.09
160.11
119.93
61.30
0.87
-45.53
-71.31
-79.54
-78.04
-74.05
-71.60
-70.40
-67.75
-62.38
-55.42
-49.12
-45.06
-43.76
-44.85
-47.70
-50.97
-52.57
-51.11
-45.91
-36.61
-22.73
-4.28
17.93
41.50
63.30
80.23
89.16
88.20
77.53
60.58
40.72
21.64
5.28
-8.61
-21.47
-34.64
-48.03
-59.68
-66.71
-67.07
-60.68
-49.81
-37.58
-26.34
-16.87
-8.92
-2.30
2.50
4.32
2.50
-2.30
-7.99
-11.86
-11.80
-7.55
-0.75
6.11
10.97
13.04
13.06
12.55
11.50
10.04
7.53
3.06
-3.94
-13.23
-23.73
-34.09
-43.31
-51.06
-57.18
-61.38
-62.89
-60.58
-53.67
-42.29
-27.93
-13.05
-0.12
9.45
15.36
18.11
18.55
17.42
15.72
14.54
15.06
18.17
24.13
32.05
40.06
46.12
48.81
48.43
46.12
43.12
40.16
37.39
34.44
30.73
25.65
18.89
11.52
4.99
0.95
1.13
6.94
18.89
35.93
55.15
72.30
84.19
88.45
84.32
73.02
57.81
43.11
33.25
31.36
31.19
28.97
23.75
17.10
10.45
4.08
-2.39
-9.42
-17.06
-24.86
-30.71
-32.92
-31.04
-26.22
-20.44
-15.81
-13.81
-14.70
-17.49
-19.67
-19.23
-15.72
-10.25
-4.47
0.27
3.27
4.23
2.76
-0.91
-6.19
-11.59
-14.67
-12.99
-5.95
3.80
11.55
12.49
5.34
-6.60
-16.98
-19.73
-12.43
2.27
17.82
28.10
30.06
25.12
17.19
9.63
3.61
-1.69
-7.38
-13.97
-19.37
-20.35
-13.92
0.80
21.22
41.83
56.15
58.84
46.55
21.05
-12.12
-45.26
-69.51
-79.59
-76.34
-65.16
-52.49
-46.79
-49.19
-58.78
-73.82
-92.29
-112.23
-130.67
-143.51
-137.44
-108.84
-62.37
-9.24
38.88
74.71
96.34
106.53
110.04
110.83
109.30
105.75
100.60
95.64
93.71
96.54
104.44
115.70
126.94
132.48
128.54
114.46
91.22
62.52
32.43
5.10
-16.68
-32.04
-42.68
-49.74
-54.01
-55.44
-53.48
-49.17
-43.81
-39.07
-36.35
-36.90
-39.51
-42.24
-43.03
-35.13
-19.45
0.03
18.26
31.35
34.23
29.40
20.43
10.22
-0.41
-13.95
-33.93
-64.75
-106.04
-158.08
-217.89
-281.40
-343.47
-398.21
-439.65
-461.39
-458.96
-431.83
-384.59
-321.78
-248.71
-170.72
-93.16
-21.11
42.23
95.05
137.22
169.95
199.89
234.57
279.26
334.86
398.88
467.53
535.50
596.12
621.06
588.58
497.05
369.50
238.50
128.70
50.48
1.42
-27.70
-47.21
-60.83
-67.70
-66.08
-56.97
-44.38
-34.17
-30.99
-37.31
-53.20
-74.22
-94.70
-110.95
-122.85
-133.07
-140.44
-147.11
-154.93
-164.45
-173.47
-179.50
-181.76
-181.71
-181.19
-180.01
-175.83
-164.30
-141.91
-108.01
-66.31
-23.96
11.33
34.65
45.56
46.66
42.17
35.78
29.60
24.65
21.53
20.93
23.37
28.96
36.18
43.28
49.35
53.92
57.78
62.18
68.24
76.16
85.06
93.24
99.17
102.68
104.14
104.87
106.46
110.74
118.99
131.28
145.59
154.61
153.47
137.94
107.15
64.63
18.13
-23.48
-53.76
-70.93
-77.71
-78.48
-78.24
-77.41
-75.86
-72.46
-66.77
-59.78
-53.32
-48.82
-46.10
-44.17
-41.31
-36.39
-29.20
-20.71
-12.69
-6.93
-4.47
-4.87
-6.89
-8.52
-8.22
-5.20
0.10
6.14
10.91
12.68
10.79
5.41
-1.94
-9.68
-16.77
-22.92
-28.86
-35.71
-44.35
-54.49
-66.32
-79.47
-93.38
-106.56
-116.19
-118.46
-109.91
-89.34
-59.21
-25.41
5.03
26.57
37.31
39.16
36.08
31.81
28.16
24.97
21.22
16.58
11.72
7.88
5.99
5.78
6.13
5.61
3.07
-1.55
-7.33
-12.87
-16.91
-18.77
-18.49
-16.55
-13.67
-10.35
-6.65
-2.21
3.30
9.92
17.39
25.08
32.38
38.63
43.54
47.09
49.48
50.85
51.25
50.83
49.07
47.01
45.30
44.40
44.45
45.05
45.44
44.69
42.47
39.07
35.69
33.63
33.97
36.88
41.42
46.30
49.08
48.42
44.13
37.44
30.22
24.68
22.58
24.87
30.93
38.16
42.37
38.67
23.35
-4.32
-40.75
-78.44
-108.29
-122.86
-119.07
-99.11
-69.35
-37.60
-10.50
8.33
18.37
21.21
19.27
14.72
9.21
3.89
-0.38
-2.84
-3.00
-0.78
3.24
7.87
11.59
13.11
11.62
7.37
1.58
-3.89
-7.20
-7.28
-4.19
0.88
6.11
9.87
11.39
11.04
10.00
9.69
10.99
13.93
17.75
21.39
23.90
24.85
24.17
21.92
17.98
12.00
3.75
-6.44
-17.61
-28.77
-39.71
-51.29
-64.91
-81.25
-99.18
-115.57
-126.41
-128.63
-121.60
-107.29
-89.22
-70.71
-53.61
-38.12
-23.60
-9.63
3.35
14.30
22.20
26.74
28.43
28.27
27.22
25.75
23.65
20.25
14.85
7.31
-1.71
-10.79
-18.33
-23.12
-24.93
-24.44
-22.80
-20.98
-19.33
-17.56
-15.16
-11.91
-8.06
-4.30
-1.30
0.64
1.68
2.28
2.78
3.10
2.76
1.15
-1.97
-6.09
-10.00
-12.17
-11.43
-7.57
-1.49
5.14
10.55
13.67
14.51
14.06
13.81
15.08
18.50
23.86
30.28
36.58
41.64
44.68
45.44
43.97
40.58
35.65
29.57
22.76
15.64
8.71
2.49
-2.55
-6.20
-8.56
-10.05
-11.18
-12.29
-13.37
-14.11
-14.12
-13.29
-11.85
-10.33
-9.33
-9.18
-9.87
-11.14
-12.65
-14.20
-15.72
-17.28
-18.92
-20.68
-22.59
-24.73
-27.19
-29.96
-32.81
-35.20
-36.44
-35.84
-33.02
-28.08
-21.61
-14.59
-7.98
-2.23
3.20
9.89
19.92
34.80
54.48
76.87
98.34
115.06
124.42
125.90
120.95
112.06
101.74
91.80
83.28
76.72
72.46
70.53
70.49
71.31
71.55
69.89
65.61
58.74
50.01
40.47
31.18
22.92
16.09
10.64
6.05
1.49
-4.03
-11.25
-20.30
-30.62
-40.99
-50.02
-56.55
-60.07
-60.77
-59.38
-56.86
-54.03
-51.47
-49.49
-48.19
-47.47
-47.12
-46.80
-46.10
-44.68
-42.45
-39.64
-36.74
-34.37
-33.07
-33.09
-34.40
-36.60
-38.96
-40.43
-39.75
-35.67
-27.36
-14.78
1.06
18.40
35.21
49.85
61.44
69.83
75.13
77.35
76.18
71.29
62.88
52.02
40.59
30.68
23.79
20.18
18.81
17.84
15.52
10.92
4.24
-3.42
-10.61
-16.10
-19.27
-20.03
-18.61
-15.36
-10.65
-4.98
0.93
6.19
9.93
11.59
11.12
9.03
6.20
3.50
1.42
-0.08
-1.53
-3.65
-6.91
-11.21
-15.83
-19.70
-21.86
-21.94
-20.30
-17.76
-15.09
-12.61
-10.00
-6.55
-1.64
4.84
12.34
19.82
26.18
30.61
32.73
32.53
30.18
25.89
19.96
12.88
5.42
-1.43
-6.73
-9.93
-11.13
-11.09
-11.05
-12.18
-15.18
-19.94
-25.58
-30.80
-34.42
-35.78
-34.96
-32.56
-29.41
-26.21
-23.35
-20.87
-18.63
-16.38
-13.91
-11.08
-7.84
-4.33
-0.78
2.44
4.99
6.74
7.77
8.38
8.89
9.52
10.23
10.82
11.04
10.76
10.02
9.00
7.81
6.45
4.72
2.46
-0.37
-3.62
-6.94
-10.00
-12.59
-14.62
-16.03
-16.66
-16.31
-14.90
-12.63
-10.07
-7.94
-6.78
-6.66
-7.10
-7.35
-6.73
-4.96
-2.27
0.79
3.62
5.81
7.31
8.23
8.84
9.41
10.10
10.96
11.91
12.76
13.28
13.30
12.78
11.73
10.18
7.95
4.68
-0.20
-7.18
-16.46
-27.60
-39.42
-50.20
-58.08
-61.69
-60.62
-55.49
-47.64
-38.49
-29.03
-19.58
-10.06
-0.47
8.78
16.89
22.98
26.57
27.71
26.98
25.08
22.66
20.19
18.11
16.85
16.83
18.31
21.19
24.83
28.14
29.89
29.10
25.51
19.73
13.06
7.03
2.86
1.08
1.44
3.17
5.40
7.53
9.34
10.88
12.24
13.35
14.03
14.04
13.25
11.69
9.61
7.38
5.45
4.13
3.45
3.18
2.94
2.42
1.59
0.71
0.11
-0.00
0.22
0.33
-0.14
-1.42
-3.29
-5.31
-7.01
-8.24
-9.17
-10.11
-11.19
-12.17
-12.55
-11.87
-10.04
-7.50
-5.09
-3.66
-3.70
-5.09
-7.25
-9.38
-10.81
-11.19
-10.46
-8.71
-6.18
-3.15
-0.05
2.58
4.21
4.50
3.51
1.69
-0.25
-1.67
-2.19
-1.81
-0.84
0.33
1.35
2.02
2.23
1.96
1.22
0.06
-1.41
-3.05
-4.71
-6.33
-7.89
-9.39
-10.78
-11.89
-12.53
-12.55
-11.92
-10.79
-9.42
-8.12
-7.15
-6.73
-7.02
-8.09
-9.87
-12.07
-14.30
-16.11
-17.17
-17.38
-16.85
-15.78
-14.38
-12.77
-11.05
-9.27
-7.52
-5.84
-4.16
-2.25
0.25
3.68
8.21
13.73
19.85
25.95
31.45
35.92
39.24
41.64
43.51
45.27
47.10
48.93
50.45
51.35
51.53
51.17
50.73
50.69
51.42
52.93
54.92
56.88
58.26
58.70
58.05
56.48
54.35
52.14
50.19
48.55
46.94
44.68
40.86
34.47
24.77
11.44
-5.15
-23.98
-43.42
-61.57
-76.70
-87.58
-93.80
-95.75
-94.45
-91.19
-87.14
-83.09
-79.40
-76.09
-73.01
-69.99
-66.90
-63.70
-60.38
-56.94
-53.40
-49.81
-46.27
-42.82
-39.53
-36.49
-33.77
-31.45
-29.52
-27.85
-26.18
-24.23
-21.85
-19.14
-16.38
-13.86
-11.75
-10.00
-8.46
-7.03
-5.71
-4.70
-4.15
-4.12
-4.41
-4.78
-4.94
-4.79
-4.37
-3.84
-3.37
-3.05
-2.92
-2.92
-3.00
-3.08
-3.15
-3.18
-3.15
-3.07
-2.90
-2.65
-2.33
-1.98
-1.60
-1.15
-0.59
0.13
1.02
2.00
2.94
3.69
4.21
4.64
5.20
6.15
7.61
9.51
11.62
13.65
15.37
16.70
17.72
18.63
19.63
20.95
22.71
24.88
27.21
29.25
30.38
30.04
27.89
23.93
18.53
12.24
5.60
-1.03
-7.56
-14.04
-20.54
-26.99
-33.14
-38.55
-42.78
-45.51
-46.67
-46.43
-45.13
-43.19
-40.95
-38.74
-36.76
-35.21
-34.20
-33.76
-33.76
-33.99
-34.17
-34.04
-33.41
-32.08
-29.74
-25.98
-20.32
-12.52
-2.76
8.26
19.57
30.37
40.42
50.12
60.07
70.57
81.10
90.52
97.55
101.45
102.39
101.21
98.76
95.33
90.44
83.18
72.81
59.26
43.14
25.47
7.17
-11.18
-29.35
-47.20
-64.35
-80.03
-93.11
-102.43
-107.10
-106.83
-101.98
-93.48
-82.58
-70.49
-58.20
-46.28
-35.00
-24.50
-14.92
-6.50
0.48
5.83
9.59
12.06
13.65
14.77
15.61
16.14
16.19
15.63
14.46
12.84
10.94
8.85
6.54
3.96
1.14
-1.78
-4.55
-6.93
-8.81
-10.22
-11.29
-12.15
-12.88
-13.48
-13.81
-13.63
-12.63
-10.52
-7.12
-2.48
3.10
9.15
15.18
20.88
26.16
31.09
35.79
40.20
44.12
47.23
49.16
49.69
48.75
46.47
43.15
39.21
35.03
30.84
26.64
22.29
17.63
12.72
7.91
3.72
0.63
-1.30
-2.50
-3.74
-5.78
-8.98
-13.07
-17.30
-20.79
-22.89
-23.50
-22.95
-21.82
-20.69
-20.03
-20.19
-21.20
-22.79
-24.03
-23.45
-19.39
-10.71
2.50
18.52
34.28
46.34
51.98
50.27
42.28
30.56
18.06
7.09
-1.15
-6.48
-9.18
-9.54
-7.72
-3.99
1.00
6.21
10.58
13.61
15.69
17.90
21.30
26.28
32.29
38.13
42.67
45.32
46.19
45.77
44.40
42.04
38.33
32.98
26.10
18.48
11.29
5.74
2.53
1.54
1.83
2.08
0.99
-2.17
-7.46
-14.36
-22.07
-29.99
-37.81
-45.54
-53.21
-60.61
-67.19
-72.04
-74.24
-73.08
-68.30
-60.22
-49.66
-37.73
-25.63
-14.38
-4.67
3.05
8.59
11.86
12.95
12.27
10.58
8.87
8.08
8.71
10.63
13.12
15.35
16.75
17.33
17.64
18.40
20.11
22.79
25.98
28.95
30.96
31.50
30.39
27.82
24.29
20.46
16.92
14.04
11.91
10.43
9.43
8.83
8.66
8.94
9.55
10.21
10.54
10.20
9.13
7.56
5.95
4.79
4.41
4.77
5.55
6.22
6.28
5.36
3.27
-0.05
-4.43
-9.53
-14.70
-19.09
-21.81
-22.25
-20.26
-16.31
-11.29
-6.20
-1.82
1.47
3.60
4.74
5.08
4.86
4.30
3.69
3.38
3.69
4.87
6.91
9.60
12.57
15.41
17.84
19.70
21.08
22.23
23.49
25.01
26.74
28.47
30.07
31.48
32.74
33.91
35.05
36.21
37.04
37.12
36.10
34.01
31.20
28.11
25.17
22.87
21.62
21.21
20.96
19.90
17.36
13.11
7.23
0.21
-6.97
-13.15
-17.78
-21.02
-23.98
-27.94
-34.31
-44.56
-60.02
-81.01
-103.05
-120.06
-126.91
-122.34
-107.41
-84.01
-54.96
-24.49
2.86
23.10
34.00
37.44
35.69
31.63
27.40
23.67
19.65
14.89
8.83
1.18
-6.78
-14.81
-22.26
-28.38
-32.96
-36.67
-40.00
-44.65
-52.71
-61.87
-70.50
-76.22
-76.55
-69.36
-58.55
-42.08
-19.43
7.84
36.55
62.99
82.95
94.48
97.97
95.16
89.19
82.46
77.05
74.35
73.97
74.53
73.82
68.71
55.77
33.38
2.04
-31.22
-56.33
-67.59
-66.14
-56.97
-45.41
-35.02
-26.39
-18.60
-10.28
-1.46
6.30
11.37
13.27
12.79
11.40
11.10
13.28
18.51
25.38
31.48
34.60
33.19
27.99
20.53
12.95
7.23
4.67
4.34
4.33
2.53
-2.32
-10.14
-19.69
-28.98
-35.82
-38.59
-38.01
-35.91
-34.94
-38.02
-47.84
-66.29
-93.87
-129.92
-164.67
-189.81
-197.71
-183.78
-148.43
-97.34
-39.87
13.86
56.22
83.90
96.85
98.21
92.18
82.56
71.97
61.99
53.48
46.91
42.68
40.06
38.31
36.43
33.68
29.91
25.82
22.67
21.80
24.01
28.50
33.47
36.48
35.40
29.43
19.68
8.93
0.65
-2.48
-0.10
5.89
12.11
15.26
13.59
7.51
-0.92
-9.16
-15.29
-18.70
-19.65
-18.65
-15.82
-10.81
-3.05
7.64
20.72
34.84
48.03
58.09
63.07
61.81
54.28
41.72
26.31
10.64
-3.07
-13.35
-19.68
-22.14
-21.07
-17.00
-10.66
-3.24
3.65
8.42
10.14
8.86
5.54
1.43
-2.63
-6.54
-10.76
-15.78
-21.73
-28.23
-34.63
-40.39
-45.23
-49.29
-52.89
-56.35
-59.79
-63.00
-65.37
-65.99
-63.80
-57.90
-47.89
-34.18
-18.17
-2.00
11.90
21.65
26.55
27.39
26.14
25.13
26.08
29.53
34.83
40.71
46.10
50.50
54.04
56.98
59.38
61.06
61.93
62.15
61.99
61.15
58.46
52.05
40.38
23.38
3.01
-17.48
-35.15
-48.86
-59.66
-69.84
-81.35
-94.60
-108.35
-120.73
-130.40
-137.14
-141.65
-144.67
-146.45
-146.54
-144.24
-138.96
-130.38
-118.32
-102.66
-83.42
-60.85
-35.60
-8.62
18.94
45.75
70.29
90.82
105.80
114.40
117.03
115.43
112.03
109.17
108.19
109.07
110.58
110.86
108.03
100.53
87.35
68.20
43.90
16.67
-9.77
-30.84
-42.23
-41.20
-27.49
-3.37
27.15
59.64
90.44
117.04
137.66
150.43
153.05
143.37
121.01
88.57
51.67
17.12
-9.93
-28.30
-41.06
-53.35
-69.18
-88.59
-107.47
-119.80
-121.25
-111.57
-94.74
-76.61
-62.14
-53.36
-49.09
-46.31
-42.20
-35.71
-27.83
-20.66
-15.84
-13.84
-13.90
-14.38
-13.58
-10.51
-5.52
-0.06
4.06
6.16
6.23
4.65
2.25
0.22
-0.44
0.37
1.99
3.42
5.25
7.59
9.15
7.98
2.86
-6.05
-17.27
-28.06
-35.34
-34.61
-24.64
-8.89
6.97
19.09
27.28
34.11
43.47
58.19
81.51
112.60
146.06
175.40
196.95
210.34
216.54
216.96
194.65
147.12
91.48
48.44
24.54
13.63
7.26
-2.50
-17.77
-36.42
-51.63
-59.27
-59.74
-56.36
-52.73
-50.92
-51.27
-52.09
-50.92
-43.73
-29.41
-11.27
5.01
14.52
14.15
2.32
-20.41
-50.92
-81.89
-105.05
-114.57
-109.18
-92.14
-69.82
-49.09
-34.14
-25.47
-20.38
-16.48
-13.84
-14.59
-20.44
-30.61
-41.70
-49.22
-50.23
-44.83
-36.66
-31.56
-34.99
-49.65
-74.22
-103.72
-131.07
-149.51
-154.92
-147.43
-131.36
-113.66
-101.15
-97.94
-104.07
-115.91
-127.83
-134.39
-132.02
-119.63
-98.34
-70.58
-39.23
-6.87
24.52
53.53
79.14
100.38
116.28
126.03
129.37
126.97
120.53
112.23
103.85
95.89
87.39
76.65
62.45
45.21
27.22
11.89
2.27
-0.28
3.44
11.03
19.79
27.80
34.33
39.52
43.61
46.46
47.52
46.23
42.44
36.48
28.89
20.17
10.71
0.87
-8.88
-17.97
-25.87
-32.26
-36.97
-39.79
-40.33
-37.99
-32.28
-23.34
-12.25
-0.97
8.40
14.55
17.81
20.30
25.20
35.46
52.28
74.23
97.38
116.60
127.62
128.76
121.78
111.01
101.63
97.40
99.33
105.64
113.09
118.69
120.93
119.87
116.26
110.51
102.31
91.12
77.14
61.59
45.95
30.61
13.87
-7.32
-35.30
-69.61
-106.40
-140.26
-167.10
-186.22
-199.82
-210.51
-218.39
-219.94
-209.70
-183.89
-143.67
-96.00
-51.45
-20.10
-7.66
-13.84
-32.92
-56.37
-75.84
-85.74
-84.38
-73.79
-58.26
-42.30
-28.78
-18.31
-9.71
-1.00
9.48
22.46
37.78
54.59
71.67
87.82
101.98
113.40
121.82
127.41
130.53
131.48
130.51
128.02
124.77
121.44
117.65
111.32
99.17
78.64
50.27
18.62
-9.13
-26.66
-31.89
-28.32
-23.09
-23.02
-30.77
-43.60
-55.31
-60.23
-56.39
-46.08
-33.73
-22.67
-13.08
-2.40
12.45
32.22
53.92
71.81
80.26
76.61
62.57
43.51
26.16
15.77
14.16
19.22
26.47
31.64
32.45
28.80
22.20
14.72
8.04
2.88
-1.43
-6.12
-11.73
-17.48
-21.60
-22.14
-17.77
-8.51
4.00
16.31
24.41
25.67
19.51
6.77
-11.32
-33.77
-59.80
-83.93
-99.35
-103.86
-99.99
-91.53
-81.41
-71.07
-60.64
-49.54
-37.74
-26.46
-18.02
-13.92
-13.93
-16.34
-18.78
-19.19
-16.46
-11.81
-7.20
-5.52
-9.04
-18.74
-34.58
-55.46
-78.83
-97.88
-107.29
-102.51
-82.31
-49.95
-12.54
21.36
45.29
57.44
60.90
60.68
61.24
63.85
66.87
67.63
64.68
58.99
53.34
50.89
52.72
58.00
64.62
70.28
74.16
76.53
77.37
75.08
67.08
51.13
28.21
2.92
-18.43
-31.18
-34.99
-33.85
-33.89
-37.78
-44.61
-50.09
-49.72
-41.89
-28.86
-15.17
-4.73
1.20
4.35
7.13
10.83
14.58
15.83
12.07
2.23
-11.69
-27.06
-40.21
-48.35
-50.56
-48.22
-44.28
-41.91
-43.08
-47.70
-53.88
-58.58
-59.56
-56.17
-49.84
-43.33
-39.34
-39.47
-43.77
-51.16
-59.59
-66.47
-68.88
-63.90
-49.59
-26.06
3.88
35.55
63.76
84.82
97.85
104.19
106.53
107.27
107.83
108.13
106.72
101.62
91.63
77.71
63.18
52.38
48.03
49.02
50.04
44.41
28.06
2.38
-25.96
-48.68
-60.41
-61.62
-57.69
-55.24
-57.98
-64.95
-72.09
-75.26
-73.11
-67.20
-61.12
-58.26
-59.94
-65.27
-70.67
-72.66
-69.28
-60.89
-49.93
-40.03
-34.39
-34.85
-41.63
-53.84
-70.09
-87.41
-103.04
-112.92
-113.14
-101.70
-80.12
-53.33
-27.96
-9.78
-1.40
-1.86
-7.77
-15.69
-23.50
-30.76
-37.66
-43.74
-47.60
-47.40
-41.79
-30.70
-15.50
1.86
19.39
36.03
51.62
66.47
80.24
92.82
103.63
111.61
115.76
115.64
111.64
104.94
97.00
89.68
83.55
78.64
74.50
70.44
65.89
60.66
54.98
49.34
44.26
40.08
36.85
34.28
31.93
29.41
26.51
23.31
20.10
17.23
14.97
13.41
12.39
11.57
10.58
9.17
7.34
5.39
3.78
3.01
3.29
4.44
5.81
6.59
6.18
4.49
2.16
0.34
0.16
2.17
5.92
10.01
12.78
13.02
10.67
7.05
4.31
4.49
8.39
15.06
22.07
26.72
27.40
24.21
19.14
15.04
14.03
16.72
22.41
29.18
35.40
39.53
39.66
32.94
16.51
-10.17
-43.63
-75.77
-96.49
-97.82
-78.63
-46.00
-12.70
8.94
13.08
2.45
-14.65
-30.30
-41.64
-51.24
-63.15
-78.00
-90.68
-92.98
-78.86
-49.38
-12.96
18.98
38.12
43.49
40.84
38.32
41.29
49.50
58.68
63.94
62.85
57.08
50.74
48.18
52.10
62.98
78.63
94.73
105.50
104.50
87.38
54.19
10.47
-33.46
-66.27
-81.01
-78.84
-68.18
-60.75
-64.73
-80.73
-102.43
-120.32
-127.10
-121.61
-109.00
-94.18
-83.33
-80.17
-83.64
-92.65
-108.89
-132.44
-160.71
-189.37
-211.20
-218.25
-204.08
-166.68
-109.83
-41.23
30.69
99.12
160.04
212.09
254.47
285.79
303.77
305.97
291.62
262.87
224.18
180.88
137.80
97.68
61.08
27.39
-3.70
-30.72
-50.11
-57.84
-51.71
-32.91
-6.61
19.78
39.18
47.36
43.99
31.69
13.81
-7.64
-32.82
-63.34
-100.27
-142.28
-184.40
-218.45
-235.14
-227.38
-193.52
-138.65
-73.60
-11.27
37.52
67.32
78.21
73.88
59.05
38.08
15.40
-3.55
-12.74
-8.10
9.31
32.15
49.59
52.90
40.49
19.39
1.56
-2.89
8.86
31.13
53.17
65.16
62.66
47.47
25.21
1.85
-18.93
-35.94
-49.32
-59.21
-65.13
-66.14
-61.77
-52.46
-39.91
-26.84
-16.50
-11.90
-14.86
-25.23
-40.68
-57.44
-71.63
-80.79
-84.46
-83.63
-79.60
-72.87
-62.84
-48.83
-31.32
-12.70
3.36
13.41
15.94
12.02
4.99
-0.79
-1.44
5.42
20.17
41.15
65.13
87.82
104.82
112.75
110.07
97.44
77.12
52.02
24.96
-1.14
-23.34
-39.05
-46.76
-46.60
-40.27
-30.15
-18.20
-4.96
10.97
31.62
58.32
90.60
126.53
163.17
197.04
223.56
237.47
235.08
215.47
181.27
138.26
94.34
57.01
31.67
19.71
19.59
29.97
49.56
75.58
102.00
120.54
122.87
104.55
66.24
14.68
-36.61
-72.46
-81.96
-62.55
-19.40
37.22
96.24
146.88
170.85
155.51
104.94
39.92
-18.04
-57.34
-84.74
-107.85
-132.64
-163.05
-195.86
-226.29
-249.61
-263.15
-266.10
-259.07
-242.37
-218.41
-191.47
-164.61
-139.61
-117.48
-99.58
-87.06
-80.02
-75.22
-69.14
-59.99
-47.37
-32.68
-17.98
-5.31
4.71
13.23
24.38
41.71
66.26
96.95
131.48
166.61
197.46
217.75
213.77
178.51
119.25
54.57
1.97
-30.60
-44.55
-46.56
-43.99
-41.44
-38.73
-34.08
-27.22
-20.09
-15.19
-13.74
-15.31
-18.53
-21.56
-22.29
-19.69
-14.63
-9.42
-6.09
-5.27
-6.35
-8.18
-9.64
-9.61
-7.74
-4.76
-1.98
-0.31
0.35
0.64
1.04
1.70
2.38
2.55
1.62
-0.67
-4.15
-7.66
-10.51
-12.74
-15.07
-18.47
-23.75
-31.09
-40.34
-51.18
-63.06
-73.90
-82.10
-84.67
-78.82
-63.46
-40.05
-12.45
14.56
37.12
53.12
61.76
63.33
58.47
46.93
28.97
5.91
-19.14
-41.37
-55.24
-56.82
-44.81
-21.50
7.64
35.95
58.06
71.79
78.62
82.57
87.30
94.50
102.90
108.93
109.09
101.62
87.75
69.46
52.19
38.73
28.52
18.66
5.84
-9.77
-24.20
-31.23
-25.86
-7.80
17.43
41.06
54.82
54.64
42.25
23.62
5.64
-6.77
-13.30
-17.47
-24.13
-37.20
-58.25
-86.45
-119.78
-156.47
-189.75
-214.37
-225.41
-219.32
-195.98
-160.37
-122.03
-91.98
-78.11
-81.73
-97.87
-117.63
-132.89
-140.11
-141.03
-140.27
-141.54
-144.78
-145.77
-139.09
-120.61
-89.72
-49.75
-5.97
37.24
78.32
118.88
162.09
209.61
259.74
306.68
341.87
356.87
346.28
309.65
251.70
181.25
108.83
44.69
-2.97
-29.15
-32.45
-14.67
19.75
64.67
113.00
157.47
191.75
211.72
216.70
209.99
197.71
186.30
179.73
177.57
175.28
166.58
146.50
113.63
70.42
21.40
-29.22
-79.06
-127.80
-176.37
-225.97
-277.57
-331.22
-385.40
-436.58
-479.45
-507.89
-517.15
-505.71
-475.80
-433.01
-383.72
-332.84
-282.87
-234.30
-186.55
-139.04
-91.20
-41.59
11.55
70.96
139.51
218.21
304.24
390.48
466.48
521.43
548.36
545.45
518.11
477.56
436.20
402.63
378.68
359.79
338.06
306.94
262.06
203.92
137.49
69.56
6.38
-47.21
-87.80
-118.28
-134.54
-137.70
-136.87
-142.54
-160.15
-188.43
-220.64
-247.21
-259.35
-251.33
-224.47
-185.31
-142.60
-104.59
-76.73
-60.26
-52.61
-49.69
-47.36
-44.51
-41.67
-39.18
-36.41
-32.22
-25.74
-16.44
-5.79
4.88
13.99
21.06
27.03
33.37
40.90
49.70
59.15
67.92
75.22
80.81
85.62
91.32
99.04
108.19
116.71
121.29
118.28
106.22
86.73
64.26
43.99
29.12
19.07
10.42
-1.56
-22.56
-56.70
-104.37
-161.60
-220.84
-272.84
-309.04
-322.06
-308.36
-269.57
-211.34
-140.98
-66.03
6.67
72.45
120.04
142.09
140.70
124.14
100.75
76.66
55.39
38.55
26.52
18.64
14.39
12.37
10.06
5.11
-2.42
-10.46
-16.55
-19.24
-19.07
-17.10
-15.63
-16.15
-20.38
-29.01
-41.87
-57.54
-72.59
-82.15
-81.39
-68.40
-46.08
-21.25
-0.30
13.48
21.02
26.59
34.56
46.58
60.57
72.54
75.07
67.79
55.72
44.35
35.43
26.57
14.71
-0.13
-13.92
-20.95
-17.10
-3.76
12.01
21.99
21.28
10.79
-3.65
-14.94
-18.45
-13.37
-2.81
8.62
17.55
23.19
26.92
30.74
34.71
35.85
29.63
12.46
-15.06
-45.85
-68.64
-73.06
-54.74
-18.03
26.17
66.31
95.98
113.36
123.04
132.85
148.53
169.98
190.73
201.25
193.66
165.08
118.35
61.05
2.38
-49.37
-88.14
-110.38
-114.81
-102.40
-76.70
-43.94
-11.72
12.39
22.81
17.83
0.27
-23.50
-45.87
-60.74
-65.18
-59.49
-46.27
-29.05
-11.03
5.60
19.68
30.88
39.08
44.15
45.91
43.88
37.31
25.18
6.25
-20.66
-55.77
-97.47
-141.43
-180.77
-207.59
-215.71
-203.73
-176.61
-144.07
-116.43
-99.85
-93.87
-92.33
-87.47
-73.66
-49.42
-16.95
20.03
58.31
96.04
132.10
165.06
192.15
210.87
219.97
219.62
210.62
194.22
172.52
148.88
127.17
108.45
91.94
75.16
54.65
27.24
-8.28
-50.18
-94.41
-136.35
-174.45
-206.39
-228.18
-235.84
-228.35
-209.46
-186.74
-169.00
-163.14
-174.92
-203.49
-241.79
-280.27
-311.36
-330.84
-336.58
-327.44
-283.46
-201.91
-100.99
-8.31
57.92
94.35
107.36
107.18
103.61
104.61
108.60
111.75
111.25
106.00
95.41
79.30
58.95
37.26
15.76
-4.11
-19.26
-25.25
-18.10
3.31
36.80
78.37
124.00
170.98
217.03
261.82
306.36
351.05
394.03
431.41
458.70
472.25
469.96
450.72
415.21
365.97
306.92
242.60
177.16
113.79
54.12
-2.03
-56.57
-112.14
-170.73
-232.05
-292.35
-344.38
-379.36
-390.68
-377.55
-346.40
-308.84
-276.64
-256.27
-246.33
-239.17
-225.74
-200.69
-164.96
-124.62
-87.26
-58.38
-39.69
-29.64
-25.21
-23.21
-20.68
-14.75
-2.56
17.92
46.83
81.60
117.24
147.68
167.74
174.63
168.45
151.52
127.17
98.65
68.69
39.66
13.83
-6.75
-20.92
-28.85
-32.11
-33.04
-33.73
-35.15
-36.91
-37.60
-35.82
-31.10
-24.24
-16.87
-10.66
-6.63
-4.80
-4.43
-4.36
-3.85
-3.10
-3.06
-4.75
-8.61
-14.18
-20.40
-26.03
-29.45
-29.72
-27.10
-23.14
-20.13
-20.48
-26.15
-37.72
-53.69
-68.99
-77.66
-75.80
-63.33
-43.73
-22.03
-2.96
10.69
18.09
22.45
27.30
34.14
42.07
49.57
56.39
63.55
72.49
83.88
100.72
125.15
156.89
193.38
231.51
269.66
307.46
344.95
361.67
342.63
288.06
214.02
139.24
74.66
25.00
-8.29
-25.10
-28.43
-20.34
-2.60
21.66
47.71
69.12
82.48
88.20
91.15
92.40
95.14
100.50
106.61
108.50
97.48
68.71
23.24
-30.76
-88.78
-146.86
-203.21
-256.18
-303.46
-345.34
-379.44
-401.90
-407.17
-399.95
-388.06
-378.96
-375.00
-347.49
-282.97
-190.58
-117.84
-71.10
-47.56
-33.02
-20.36
-5.41
11.76
23.42
23.29
11.35
-2.35
-10.98
-10.49
-1.54
12.99
29.10
40.33
43.88
41.78
41.53
45.78
54.57
66.05
78.99
92.20
102.01
105.03
99.51
87.55
70.24
49.39
27.35
7.19
-8.57
-19.68
-26.65
-30.22
-30.41
-28.82
-27.33
-27.29
-28.59
-29.84
-29.51
-26.25
-19.61
-10.06
0.54
9.90
16.12
18.26
16.52
12.50
9.15
9.82
16.85
30.36
47.94
65.54
79.07
85.95
85.99
80.95
73.09
63.58
52.16
37.66
19.86
0.94
-15.97
-28.62
-36.17
-38.97
-38.31
-35.99
-33.89
-33.32
-34.50
-36.70
-38.31
-37.50
-33.20
-25.82
-17.19
-9.71
-5.41
-5.24
-9.35
-16.78
-25.01
-30.96
-30.69
-21.14
-1.30
26.71
57.92
85.78
103.29
107.99
102.24
91.40
80.88
73.48
68.34
62.13
51.32
34.42
13.40
-7.76
-24.93
-35.78
-40.71
-42.74
-44.13
-45.55
-45.74
-42.65
-35.59
-26.15
-17.12
-11.22
-9.36
-9.86
-9.54
-5.85
1.40
9.81
15.65
16.64
12.59
5.18
-2.99
-9.80
-14.73
-18.46
-21.45
-22.85
-19.31
-7.51
13.81
42.42
73.27
99.95
114.24
110.61
83.96
38.85
-11.55
-52.65
-76.50
-83.43
-79.37
-71.51
-64.74
-61.04
-59.25
-58.06
-57.30
-58.51
-61.37
-64.57
-66.06
-64.05
-58.96
-52.79
-49.01
-50.65
-58.08
-67.83
-74.30
-72.50
-58.01
-31.63
1.69
34.86
62.01
81.03
94.08
105.05
116.46
127.56
134.23
132.22
120.17
101.35
82.43
70.75
70.79
82.34
101.09
120.54
135.08
141.53
139.20
128.88
111.90
89.60
63.53
35.91
9.23
-14.28
-33.77
-50.24
-65.98
-83.04
-101.73
-120.16
-134.99
-143.39
-144.31
-138.89
-129.50
-118.24
-105.82
-91.67
-75.14
-56.58
-37.98
-22.22
-11.96
-8.57
-11.58
-18.65
-25.76
-27.84
-19.76
1.69
36.09
78.48
120.05
150.36
160.60
146.67
110.98
62.04
11.78
-28.46
-51.57
-56.67
-48.44
-34.31
-21.00
-12.05
-7.25
-4.00
0.46
7.39
16.19
25.29
33.07
38.36
40.21
37.39
28.39
12.14
-11.01
-38.76
-66.95
-90.81
-106.72
-113.55
-113.09
-109.09
-105.50
-104.81
-107.20
-110.85
-113.10
-111.68
-105.41
-94.39
-79.76
-63.31
-46.98
-32.28
-19.67
-8.24
4.11
19.56
39.09
61.49
83.39
100.54
109.35
108.41
98.91
84.12
68.18
54.77
46.24
43.28
45.30
51.01
58.87
67.10
73.55
75.72
71.23
58.99
40.24
19.15
1.47
-7.79
-6.82
1.91
12.66
18.88
15.97
2.88
-17.35
-38.95
-55.78
-63.19
-58.98
-43.59
-19.88
7.74
34.09
55.32
69.40
75.68
74.59
67.89
58.81
51.16
48.10
49.98
55.06
60.39
62.33
58.10
47.13
31.08
11.93
-9.68
-35.24
-65.12
-96.52
-123.97
-140.97
-141.82
-123.68
-87.93
-36.49
18.45
60.88
83.09
88.89
86.60
82.47
78.74
74.61
68.49
59.29
49.10
41.89
40.81
46.02
54.53
61.33
61.12
50.21
28.10
-2.82
-37.39
-69.86
-96.43
-115.71
-128.27
-135.70
-139.68
-141.74
-142.42
-142.39
-142.73
-145.55
-153.18
-166.76
-185.52
-207.19
-229.37
-244.55
-249.14
-242.61
-227.11
-205.73
-180.63
-152.16
-119.08
-79.70
-32.91
20.30
77.53
135.30
189.87
237.84
276.74
305.33
323.83
333.84
337.22
336.40
333.75
331.04
329.00
327.09
323.88
317.88
308.38
295.68
281.25
266.77
253.17
240.15
226.52
210.96
192.35
169.98
143.31
112.53
79.09
45.77
15.91
-8.08
-26.47
-43.07
-64.02
-95.21
-139.01
-192.56
-248.30
-296.70
-329.84
-343.94
-340.12
-323.09
-299.17
-274.14
-252.03
-234.78
-222.47
-213.71
-206.25
-197.81
-186.83
-172.93
-156.58
-138.41
-118.49
-96.13
-70.75
-43.19
-16.03
7.21
23.94
34.34
41.55
49.82
61.57
75.43
86.78
90.78
85.80
74.86
64.06
58.93
60.94
66.85
70.73
67.96
58.04
44.84
34.08
29.84
32.35
38.09
42.10
40.82
33.93
24.15
15.54
11.32
12.51
17.71
23.93
27.88
27.01
19.60
4.16
-21.03
-57.46
-104.93
-159.81
-214.38
-258.15
-281.06
-277.04
-246.07
-194.03
-130.44
-65.48
-7.52
38.06
68.94
85.17
88.76
83.10
72.52
61.30
52.74
48.36
47.74
49.09
50.04
48.67
44.26
37.44
29.81
23.28
19.25
18.14
19.42
21.97
24.67
26.78
27.99
28.28
27.72
26.34
24.20
21.50
18.64
16.05
14.00
12.45
11.06
9.31
6.89
3.95
1.14
-0.73
-1.28
-0.90
-0.63
-1.75
-5.03
-10.42
-17.15
-24.12
-30.40
-35.37
-38.71
-40.20
-39.72
-37.47
-34.09
-30.71
-28.51
-28.23
-29.81
-32.47
-35.19
-37.31
-38.79
-40.07
-41.66
-43.66
-45.68
-47.07
-47.39
-46.83
-46.11
-46.05
-47.00
-48.56
-49.85
-50.17
-49.62
-49.01
-49.33
-51.03
-53.76
-56.50
-58.02
-57.35
-53.74
-46.50
-34.76
-17.93
3.67
28.25
52.74
73.76
88.90
97.68
101.46
102.57
103.13
104.28
106.04
107.83
109.12
109.69
109.69
109.38
108.85
107.94
106.34
103.76
99.82
94.09
86.22
76.26
64.91
53.55
43.89
37.33
34.45
34.81
37.32
40.79
44.47
48.16
51.91
55.62
58.75
60.42
59.84
56.81
51.93
46.44
41.61
38.10
35.58
32.82
28.28
20.99
11.06
-0.29
-11.26
-20.36
-27.07
-31.92
-36.10
-40.75
-46.50
-53.28
-60.58
-67.82
-74.61
-80.92
-86.88
-92.63
-98.04
-102.56
-105.36
-105.55
-102.57
-96.60
-88.90
-81.64
-77.32
-77.46
-81.55
-86.54
-87.69
-80.57
-63.15
-37.09
-7.27
20.23
40.58
51.98
55.75
54.94
52.50
50.00
47.47
44.24
39.93
34.96
30.44
27.45
26.33
26.39
26.14
24.02
19.23
12.14
4.21
-2.73
-7.37
-9.38
-9.48
-8.80
-8.22
-7.97
-7.61
-6.50
-4.23
-0.91
2.85
6.22
8.45
9.12
8.27
6.36
4.11
2.24
1.27
1.31
2.08
2.97
3.40
2.88
1.23
-1.46
-4.87
-8.52
-11.89
-14.42
-15.71
-15.61
-14.33
-12.35
-10.29
-8.66
-7.64
-7.16
-6.88
-6.52
-5.90
-5.02
-3.99
-2.97
-2.10
-1.51
-1.30
-1.44
-1.81
-2.16
-2.27
-2.04
-1.63
-1.36
-1.52
-2.26
-3.44
-4.82
-6.13
-7.28
-8.40
-9.76
-11.60
-13.97
-16.77
-19.67
-22.21
-23.85
-24.00
-22.23
-18.41
-12.91
-6.54
-0.35
4.77
8.25
10.02
10.31
9.53
8.13
6.64
5.62
5.68
7.22
10.21
14.12
18.08
21.29
23.36
24.38
24.72
24.65
24.25
23.35
21.87
19.99
18.05
16.42
15.23
14.33
13.49
12.62
11.94
11.83
12.50
13.72
14.88
15.20
14.21
11.99
9.12
6.36
4.24
2.81
1.75
0.62
-0.83
-2.47
-3.99
-5.10
-5.79
-6.33
-7.09
-8.24
-9.60
-10.70
-11.05
-10.40
-8.96
-7.30
-6.03
-5.48
-5.51
-5.60
-5.05
-3.44
-0.81
2.35
5.30
7.40
8.40
8.47
8.06
7.66
7.55
7.69
7.82
7.62
6.97
5.94
4.85
4.00
3.56
3.41
3.24
2.76
1.85
0.69
-0.38
-0.99
-0.99
-0.48
0.21
0.71
0.71
0.14
-0.91
-2.19
-3.42
-4.40
-5.02
-5.34
-5.41
-5.26
-4.85
-4.12
-3.14
-2.06
-1.11
-0.41
0.14
0.74
1.52
2.32
2.62
1.74
-0.81
-5.03
-10.40
-16.04
-21.04
-24.67
-26.53
-26.43
-24.45
-20.86
-16.19
-11.19
-6.58
-2.99
-0.70
0.29
0.12
-1.05
-3.08
-5.83
-9.06
-12.42
-15.52
-18.03
-19.89
-21.25
-22.50
-24.01
-25.94
-27.99
-29.50
-29.63
-27.74
-23.69
-17.90
-11.19
-4.43
1.81
7.33
12.22
16.60
20.47
23.66
25.99
27.45
28.30
28.98
29.96
31.57
33.79
36.41
39.04
41.35
43.20
44.72
46.16
47.79
49.62
51.25
52.00
51.05
47.85
42.46
35.59
28.43
22.16
17.43
14.09
11.31
8.07
3.73
-1.64
-7.35
-12.50
-16.49
-19.22
-21.00
-22.17
-22.89
-23.01
-22.34
-20.89
-18.94
-16.91
-15.05
-13.31
-11.42
-9.15
-6.61
-4.20
-2.42
-1.57
-1.59
-2.13
-2.87
-3.67
-4.63
-5.98
-7.87
-10.30
-13.16
-16.26
-19.38
-22.21
-24.38
-25.47
-25.32
-24.00
-21.90
-19.44
-16.90
-14.34
-11.72
-9.11
-6.73
-4.91
-3.74
-2.98
-2.08
-0.44
2.19
5.70
9.61
13.45
16.91
19.91
22.39
24.24
25.29
25.48
25.08
24.64
24.72
25.64
27.20
28.83
29.85
29.93
29.17
28.02
26.98
26.31
25.90
25.38
24.27
22.16
18.80
14.10
8.20
1.51
-5.33
-11.52
-16.29
-19.18
-20.14
-19.53
-18.00
-16.30
-15.05
-14.66
-15.21
-16.54
-18.21
-19.71
-20.60
-20.66
-19.99
-18.91
-17.82
-17.01
-16.54
-16.24
-15.87
-15.20
-14.16
-12.86
-11.45
-10.15
-9.11
-8.41
-8.03
-7.86
-7.76
-7.62
-7.34
-6.87
-6.24
-5.48
-4.65
-3.83
-3.15
-2.76
-2.80
-3.32
-4.20
-5.23
-6.10
-6.59
-6.62
-6.27
-5.74
-5.23
-4.88
-4.71
-4.68
-4.75
-4.89
-5.07
-5.24
-5.30
-5.12
-4.59
-3.70
-2.51
-1.16
0.19
1.42
2.49
3.35
3.99
4.37
4.51
4.45
4.22
3.92
3.65
3.54
3.72
4.25
5.05
5.81
6.09
5.45
3.66
0.95
-2.04
-4.44
-5.51
-4.96
-3.15
-0.96
0.56
0.68
-0.74
-3.14
-5.50
-6.81
-6.49
-4.62
-1.78
1.23
3.76
5.52
6.54
7.04
7.20
7.20
7.27
7.70
8.73
10.26
11.65
11.84
9.87
5.46
-0.65
-6.83
-11.31
-13.04
-12.17
-9.94
-7.96
-7.39
-8.42
-10.34
-11.99
-12.41
-11.14
-8.28
-4.23
0.51
5.49
10.32
14.59
17.88
19.88
20.43
19.65
17.82
15.34
12.60
9.93
7.53
5.53
3.94
2.65
1.48
0.19
-1.34
-3.03
-4.60
-5.74
-6.23
-6.16
-5.86
-5.68
-5.80
-6.01
-5.91
-5.12
-3.59
-1.70
-0.08
0.75
0.68
0.09
-0.34
-0.02
1.23
3.11
4.99
6.30
6.73
6.38
5.59
4.70
3.93
3.27
2.72
2.31
2.22
2.62
3.51
4.65
5.64
6.06
5.71
4.69
3.29
1.87
0.66
-0.31
-1.16
-2.01
-2.92
-3.89
-4.86
-5.78
-6.65
-7.44
-8.11
-8.60
-8.90
-9.06
-9.08
-8.91
-8.38
-7.24
-5.36
-2.84
-0.08
2.39
4.10
4.89
4.90
4.47
3.91
3.36
2.73
1.89
0.78
-0.47
-1.58
-2.26
-2.36
-1.92
-1.13
-0.25
0.54
1.11
1.44
1.50
1.29
0.85
0.23
-0.48
-1.19
-1.84
-2.43
-2.92
-3.29
-3.48
-3.44
-3.15
-2.70
-2.25
-1.98
-2.03
-2.46
-3.16
-3.95
-4.59
-4.87
-4.69
-4.03
-2.98
-1.61
-0.05
1.62
3.25
4.69
5.78
6.42
6.62
6.45
6.04
5.49
4.88
4.24
3.65
3.18
2.87
2.70
2.59
2.46
2.28
2.05
1.81
1.58
1.29
0.91
0.40
-0.15
-0.68
-1.11
-1.51
-2.00
-2.63
-3.36
-4.01
-4.42
-4.54
-4.65
-5.18
-6.56
-8.96
-12.13
-15.45
-18.18
-19.81
-20.35
-20.34
-20.63
-21.93
-24.41
-27.50
-30.13
-31.21
-30.21
-27.43
-23.94
-21.17
-20.24
-21.63
-25.06
-29.69
-34.37
-37.73
-38.30
-34.82
-26.80
-15.19
-2.46
8.06
13.65
13.71
10.33
7.39
8.68
16.08
28.79
44.19
59.42
72.87
84.54
95.27
105.45
114.37
120.39
121.85
117.99
109.31
97.36
83.95
70.56
57.91
45.95
34.21
22.13
9.53
-3.19
-15.00
-24.66
-31.16
-34.23
-34.47
-33.08
-31.29
-29.80
-28.52
-26.70
-23.56
-18.80
-12.85
-6.74
-1.48
2.34
4.89
6.84
8.90
11.36
13.96
16.08
17.17
17.05
15.98
14.51
13.14
12.14
11.48
10.92
10.25
9.36
8.35
7.37
6.53
5.81
5.01
3.84
2.12
-0.16
-2.79
-5.42
-7.74
-9.59
-11.05
-12.36
-13.75
-15.36
-17.21
-19.18
-21.17
-23.08
-24.89
-26.58
-28.10
-29.34
-30.13
-30.30
-29.75
-28.48
-26.61
-24.33
-21.83
-19.29
-16.83
-14.58
-12.64
-11.10
-10.01
-9.42
-9.30
-9.63
-10.41
-11.63
-13.29
-15.24
-17.31
-19.25
-20.91
-22.23
-23.26
-24.08
-24.66
-24.92
-24.77
-24.28
-23.80
-23.85
-24.94
-27.25
-30.55
-34.24
-37.62
-40.22
-42.04
-43.59
-45.61
-48.75
-53.21
-58.67
-64.45
-69.86
-74.57
-78.75
-82.94
-87.71
-93.32
-99.65
-106.25
-112.55
-117.90
-121.19
-120.70
-114.33
-100.65
-79.98
-55.01
-30.09
-9.36
5.27
15.21
24.32
36.69
54.34
76.17
98.93
119.33
135.79
148.92
160.43
171.60
182.39
191.76
198.74
203.14
205.48
206.13
204.43
198.53
186.14
165.92
138.54
106.74
74.56
46.01
24.07
9.99
3.27
2.12
4.04
6.50
7.46
5.87
1.66
-4.38
-11.11
-17.47
-22.77
-26.75
-29.49
-31.21
-32.18
-32.68
-33.00
-33.50
-34.50
-36.17
-38.46
-41.16
-43.93
-46.51
-48.76
-50.76
-52.67
-54.66
-56.72
-58.72
-60.37
-61.41
-61.72
-61.38
-60.58
-59.46
-58.01
-56.03
-53.25
-49.51
-44.86
-39.61
-34.18
-28.99
-24.27
-20.07
-16.26
-12.68
-9.21
-5.82
-2.56
0.52
3.43
6.23
8.98
11.70
14.29
16.48
17.95
18.32
17.32
14.88
11.15
6.58
1.79
-2.57
-6.04
-8.62
-10.84
-13.79
-18.73
-26.71
-38.05
-51.95
-66.31
-78.10
-84.15
-82.22
-71.77
-54.18
-32.14
-8.64
13.96
34.39
52.27
67.68
80.57
90.67
97.70
101.59
102.68
101.51
98.62
94.29
88.60
81.68
73.87
65.72
57.86
50.82
44.81
39.73
35.19
30.67
25.75
20.19
14.04
7.66
1.59
-3.61
-7.54
-10.05
-11.31
-11.73
-11.81
-11.93
-12.29
-12.86
-13.51
-14.12
-14.63
-15.07
-15.48
-15.89
-16.27
-16.65
-17.12
-17.85
-19.07
-20.89
-23.23
-25.79
-28.11
-29.72
-30.36
-30.06
-29.08
-27.82
-26.59
-25.49
-24.38
-23.06
-21.40
-19.44
-17.43
-15.63
-14.21
-13.08
-12.02
-10.78
-9.31
-7.80
-6.65
-6.22
-6.67
-7.86
-9.40
-10.87
-11.92
-12.43
-12.44
-12.11
-11.54
-10.77
-9.79
-8.56
-7.13
-5.62
-4.24
-3.22
-2.75
-2.93
-3.68
-4.75
-5.77
-6.34
-6.16
-5.16
-3.56
-1.70
-0.00
1.25
1.96
2.27
2.47
2.88
3.74
5.11
6.88
8.72
10.25
11.12
11.17
10.46
9.20
7.68
6.11
4.57
3.03
1.40
-0.33
-2.13
-3.95
-5.65
-7.06
-7.90
-7.82
-6.46
-3.68
0.31
4.93
9.41
12.99
15.23
16.13
16.02
15.40
14.70
14.16
13.83
13.59
13.36
13.01
12.50
11.73
10.68
9.36
7.89
6.41
5.07
3.94
2.96
2.02
0.99
-0.15
-1.39
-2.63
-3.77
-4.69
-5.30
-5.52
-5.33
-4.81
-4.16
-3.65
-3.51
-3.81
-4.43
-5.08
-5.46
-5.43
-5.02
-4.43
-3.87
-3.47
-3.17
-2.84
-2.30
-1.51
-0.53
0.48
1.40
2.13
2.72
3.24
3.73
4.17
4.45
4.46
4.10
3.40
2.46
1.48
0.59
-0.16
-0.82
-1.52
-2.36
-3.36
-4.48
-5.64
-6.82
-8.05
-9.44
-11.03
-12.79
-14.57
-16.25
-17.78
-19.23
-20.69
-22.13
-23.18
-23.21
-21.53
-17.72
-11.89
-4.75
2.66
9.34
14.74
18.88
22.15
25.02
27.68
29.95
31.44
31.79
30.95
29.28
27.41
25.98
25.40
25.70
26.53
27.40
27.91
27.88
27.44
26.79
26.09
25.29
24.17
22.47
20.11
17.21
14.12
11.19
8.70
6.72
5.19
3.95
2.92
2.05
1.32
0.72
0.24
-0.19
-0.65
-1.17
-1.76
-2.43
-3.16
-3.94
-4.74
-5.57
-6.45
-7.36
-8.23
-8.95
-9.34
-9.21
-8.45
-7.09
-5.27
-3.22
-1.15
0.74
2.37
3.71
4.76
5.49
5.84
5.75
5.21
4.29
3.16
2.01
1.03
0.35
0.03
0.01
0.22
0.56
0.93
1.26
1.48
1.60
1.65
1.72
1.93
2.33
2.89
3.46
3.84
3.86
3.49
2.80
1.96
1.10
0.25
-0.66
-1.71
-2.96
-4.35
-5.73
-6.99
-8.07
-8.97
-9.72
-10.27
-10.49
-10.21
-9.33
-7.89
-6.09
-4.19
-2.43
-0.91
0.36
1.49
2.55
3.55
4.42
5.05
5.35
5.27
4.86
4.20
3.40
2.58
1.82
1.17
0.65
0.28
0.04
-0.06
-0.02
0.15
0.43
0.78
1.16
1.46
1.61
1.52
1.18
0.62
-0.11
-0.96
-1.91
-3.00
-4.26
-5.69
-7.21
-8.67
-9.93
-10.88
-11.52
-11.95
-12.34
-12.84
-13.52
-14.32
-15.07
-15.48
-15.28
-14.23
-12.27
-9.46
-6.06
-2.38
1.27
4.70
7.83
10.66
13.19
15.38
17.17
18.53
19.54
20.32
21.03
21.77
22.46
22.94
23.03
22.65
21.87
20.84
19.76
18.68
17.56
16.27
14.72
12.88
10.89
8.91
7.13
5.66
4.53
3.72
3.18
2.84
2.60
2.35
1.98
1.40
0.56
-0.55
-1.88
-3.34
-4.81
-6.15
-7.28
-8.14
-8.76
-9.14
-9.22
-8.91
-8.12
-6.85
-5.23
-3.57
-2.19
-1.33
-1.02
-1.10
-1.32
-1.47
-1.48
-1.40
-1.32
-1.23
-1.08
-0.70
-0.04
0.86
1.80
2.55
2.94
2.96
2.73
2.42
2.15
1.93
1.65
1.20
0.53
-0.27
-1.04
-1.66
-2.06
-2.36
-2.72
-3.36
-4.39
-5.78
-7.39
-8.99
-10.35
-11.30
-11.77
-11.79
-11.46
-10.96
-10.47
-10.15
-10.00
-9.95
-9.78
-9.27
-8.31
-6.93
-5.32
-3.70
-2.25
-1.04
-0.05
0.79
1.48
1.97
2.20
2.18
2.02
1.85
1.80
1.87
1.97
1.97
1.78
1.40
0.90
0.44
0.11
-0.02
0.03
0.20
0.37
0.47
0.45
0.36
0.29
0.35
0.59
0.97
1.35
1.62
1.66
1.49
1.11
0.58
-0.09
-0.87
-1.71
-2.51
-3.17
-3.60
-3.75
-3.63
-3.23
-2.51
-1.38
0.26
2.44
5.06
7.93
10.77
13.35
15.47
17.10
18.24
19.00
19.54
20.01
20.56
21.25
22.05
22.84
23.51
24.02
24.37
24.59
24.64
24.42
23.76
22.54
20.78
18.63
16.31
13.98
11.64
9.16
6.43
3.43
0.34
-2.58
-5.09
-7.06
-8.55
-9.72
-10.77
-11.85
-12.97
-14.05
-14.97
-15.68
-16.18
-16.57
-16.96
-17.43
-17.94
-18.35
-18.44
-18.01
-16.99
-15.42
-13.51
-11.53
-9.74
-8.36
-7.44
-6.97
-6.81
-6.82
-6.86
-6.82
-6.68
-6.43
-6.10
-5.72
-5.34
-5.02
-4.81
-4.75
-4.81
-4.95
-5.11
-5.28
-5.47
-5.76
-6.21
-6.80
-7.40
-7.80
-7.85
-7.52
-6.97
-6.51
-6.38
-6.69
-7.30
-7.97
-8.48
-8.78
-8.97
-9.22
-9.67
-10.24
-10.74
-10.92
-10.62
-9.85
-8.75
-7.49
-6.25
-5.13
-4.13
-3.21
-2.35
-1.53
-0.80
-0.28
-0.07
-0.22
-0.67
-1.24
-1.74
-1.96
-1.83
-1.38
-0.76
-0.18
0.18
0.21
-0.08
-0.57
-1.06
-1.36
-1.38
-1.13
-0.77
-0.49
-0.38
-0.47
-0.66
-0.85
-0.98
-1.10
-1.29
-1.62
-2.12
-2.73
-3.40
-4.09
-4.77
-5.45
-6.12
-6.73
-7.16
-7.29
-7.02
-6.31
-5.23
-3.90
-2.49
-1.16
-0.02
0.90
1.64
2.27
2.86
3.44
3.95
4.33
4.50
4.46
4.27
4.06
3.95
3.96
4.04
4.08
3.95
3.62
3.16
2.70
2.33
2.07
1.88
1.65
1.34
0.95
0.51
0.06
-0.43
-1.04
-1.86
-2.87
-3.96
-5.00
-5.82
-6.39
-6.78
-7.11
-7.46
-7.84
-8.19
-8.41
-8.41
-8.19
-7.73
-7.06
-6.15
-5.02
-3.71
-2.32
-1.02
0.06
0.81
1.23
1.37
1.33
1.21
1.07
0.97
0.94
1.01
1.16
1.38
1.58
1.71
1.73
1.72
1.78
2.01
2.38
2.76
2.94
2.80
2.33
1.70
1.13
0.81
0.73
0.78
0.76
0.54
0.11
-0.42
-0.91
-1.25
-1.44
-1.57
-1.80
-2.26
-2.94
-3.71
-4.37
-4.71
-4.63
-4.08
-3.03
-1.39
0.89
3.78
7.05
10.26
12.90
14.52
14.98
14.40
13.11
11.42
9.53
7.54
5.48
3.46
1.61
0.10
-0.99
-1.72
-2.22
-2.69
-3.27
-3.98
-4.70
-5.24
-5.43
-5.20
-4.71
-4.20
-3.95
-4.11
-4.67
-5.45
-6.24
-6.88
-7.33
-7.65
-7.96
-8.30
-8.71
-9.20
-9.74
-10.29
-10.79
-11.14
-11.23
-11.00
-10.39
-9.42
-8.16
-6.72
-5.25
-3.91
-2.78
-1.88
-1.15
-0.56
-0.08
0.26
0.48
0.61
0.75
1.01
1.39
1.77
1.94
1.72
1.09
0.18
-0.73
-1.42
-1.79
-1.99
-2.31
-3.01
-4.23
-5.86
-7.62
-9.19
-10.39
-11.24
-11.93
-12.79
-14.05
-15.80
-17.95
-20.29
-22.59
-24.67
-26.51
-28.22
-30.05
-32.33
-35.33
-39.19
-43.84
-48.92
-53.78
-57.51
-59.18
-58.24
-54.71
-49.37
-43.51
-38.35
-34.54
-31.71
-28.70
-24.20
-17.37
-8.33
1.99
12.28
21.40
28.63
33.79
37.07
38.91
40.03
41.27
43.38
46.85
51.63
57.19
62.65
67.07
69.75
70.39
69.16
66.67
63.86
61.77
61.18
62.23
64.36
66.54
67.76
67.62
66.54
65.53
65.61
67.20
69.83
72.36
73.60
72.86
70.21
66.28
61.77
57.10
52.25
47.05
41.49
35.99
31.24
27.81
25.83
24.78
23.73
21.61
17.79
12.30
5.83
-0.57
-6.07
-10.51
-14.64
-19.82
-27.43
-38.21
-51.83
-67.04
-82.09
-95.39
-105.89
-113.33
-118.04
-120.89
-123.04
-125.71
-129.73
-134.93
-139.80
-141.63
-137.42
-125.07
-104.71
-79.07
-52.84
-31.12
-17.63
-13.46
-17.01
-24.95
-33.66
-40.57
-44.68
-46.25
-46.13
-45.11
-43.68
-42.18
-41.08
-40.89
-41.87
-43.65
-45.05
-44.46
-40.59
-33.18
-23.38
-13.36
-5.55
-1.70
-2.24
-6.11
-11.21
-15.22
-16.41
-14.22
-9.09
-2.04
6.11
15.11
25.02
35.65
45.94
54.11
58.36
58.21
55.09
52.01
52.01
56.45
64.10
71.77
76.29
76.29
72.98
69.11
67.14
67.54
68.44
66.86
60.54
49.33
35.23
21.30
10.06
2.61
-1.39
-3.09
-3.81
-4.72
-6.90
-11.33
-18.73
-29.32
-42.58
-57.29
-71.47
-82.27
-86.31
-80.38
-62.88
-35.14
-1.95
29.50
51.95
60.83
55.96
41.12
22.05
3.95
-10.05
-18.95
-22.81
-21.70
-15.28
-3.30
13.66
33.84
54.74
73.97
90.04
102.63
112.23
119.46
124.51
126.99
126.29
122.03
114.31
103.75
91.28
77.79
63.96
50.36
37.59
26.36
17.41
11.22
7.85
6.96
8.25
11.69
17.63
26.38
37.61
49.90
60.83
67.84
69.26
64.90
55.98
44.27
31.22
17.53
3.41
-10.83
-24.42
-36.30
-45.58
-51.87
-55.26
-56.03
-54.38
-50.78
-46.47
-43.86
-45.97
-55.13
-71.44
-92.18
-112.60
-127.73
-134.33
-131.91
-122.53
-109.68
-97.03
-87.45
-82.53
-82.47
-86.38
-92.77
-100.17
-107.42
-113.43
-116.76
-115.29
-106.74
-89.85
-65.68
-38.11
-12.60
6.00
15.69
18.04
16.93
16.17
17.39
19.57
20.24
17.63
12.19
6.46
3.75
6.14
13.34
22.61
30.14
32.88
29.91
22.77
14.50
8.06
5.03
5.10
6.64
7.86
7.79
6.71
5.69
5.73
7.14
9.30
11.15
11.89
11.47
10.60
10.21
10.84
12.28
13.65
13.84
12.08
8.27
3.10
-2.26
-6.40
-8.04
-6.28
-0.77
8.31
20.18
33.67
47.46
60.28
71.19
79.76
86.10
90.75
94.40
97.58
100.38
102.43
103.12
102.00
99.20
95.53
92.39
91.31
93.61
100.08
110.72
124.62
139.96
154.05
163.65
165.93
159.66
146.12
129.05
113.30
102.61
97.57
95.14
90.07
77.72
56.32
27.79
-3.66
-33.91
-60.75
-84.19
-105.10
-123.70
-138.79
-148.69
-152.79
-152.53
-150.84
-150.50
-152.52
-155.65
-157.33
-155.42
-149.56
-141.20
-132.40
-124.55
-117.46
-109.54
-98.66
-83.23
-62.84
-38.41
-12.15
12.84
33.28
46.71
52.58
52.61
50.16
48.66
50.03
53.89
58.27
60.97
61.05
59.27
57.24
56.19
56.05
55.73
54.17
51.29
48.15
46.04
45.14
43.78
38.75
26.60
5.21
-25.20
-61.87
-100.23
-135.12
-161.98
-178.00
-182.52
-177.08
-164.87
-149.75
-135.15
-123.20
-114.43
-107.88
-101.67
-93.89
-83.38
-70.48
-57.15
-46.39
-41.23
-43.29
-51.97
-64.44
-76.52
-84.14
-84.57
-76.92
-62.01
-41.70
-18.20
6.28
29.80
50.75
68.10
81.54
91.53
99.12
105.49
111.53
117.55
123.20
127.79
130.69
131.72
131.30
130.30
129.59
129.73
130.73
132.21
133.55
134.19
133.66
131.66
127.89
122.17
114.44
104.80
93.48
80.79
67.05
52.62
38.03
24.15
12.24
3.82
0.05
1.26
6.46
13.46
19.41
21.71
18.89
11.11
0.14
-11.22
-20.07
-24.34
-23.60
-19.31
-14.58
-13.21
-18.52
-32.02
-52.70
-77.25
-101.20
-120.53
-132.98
-138.39
-138.05
-133.70
-126.48
-116.75
-104.58
-90.55
-76.14
-63.44
-54.30
-49.33
-47.52
-46.67
-44.36
-39.06
-30.63
-20.10
-8.94
1.82
11.93
21.72
31.42
40.59
48.09
52.48
52.92
49.63
43.96
37.80
32.78
29.69
28.42
28.28
28.52
28.61
28.32
27.56
26.22
24.16
21.27
17.51
13.10
8.51
4.44
1.65
0.67
1.51
3.59
5.91
7.50
7.82
7.06
5.93
5.26
5.54
6.72
8.22
9.31
9.31
7.83
4.75
0.17
-5.69
-12.42
-19.47
-26.14
-31.70
-35.58
-37.54
-37.78
-36.83
-35.43
-34.26
-33.69
-33.74
-34.18
-34.59
-34.59
-33.84
-32.06
-29.10
-24.99
-19.98
-14.60
-9.53
-5.46
-2.87
-1.88
-2.16
-3.07
-3.82
-3.83
-2.88
-1.12
0.95
2.79
4.01
4.43
4.03
2.80
0.59
-2.83
-7.61
-13.65
-20.45
-27.21
-32.99
-36.98
-38.67
-37.95
-35.11
-30.73
-25.59
-20.49
-16.24
-13.45
-12.45
-13.13
-14.95
-17.08
-18.78
-19.74
-20.25
-20.88
-21.91
-22.63
-21.31
-15.85
-4.98
10.66
28.20
43.35
51.92
51.51
42.37
27.17
9.85
-5.80
-17.37
-24.30
-27.57
-28.94
-30.12
-32.21
-35.50
-39.60
-43.82
-47.43
-49.92
-50.97
-50.40
-48.04
-43.78
-37.75
-30.37
-22.39
-14.68
-7.99
-2.64
1.60
5.48
9.91
15.58
22.61
30.42
38.00
44.29
48.67
51.11
52.10
52.40
52.64
53.15
53.84
54.43
54.67
54.50
54.22
54.36
55.51
58.07
62.12
67.37
73.34
79.52
85.48
90.77
94.80
96.70
95.49
90.46
81.58
69.54
55.50
40.55
25.36
10.16
-4.94
-19.59
-33.12
-44.82
-54.29
-61.67
-67.42
-71.87
-74.84
-75.69
-73.69
-68.65
-61.28
-52.98
-45.44
-40.02
-37.35
-37.26
-39.06
-41.74
-44.43
-46.51
-47.76
-48.18
-47.91
-47.03
-45.53
-43.28
-40.29
-36.76
-33.08
-29.65
-26.66
-23.89
-20.75
-16.55
-10.91
-3.97
3.53
10.51
15.94
19.18
20.13
19.12
16.70
13.44
9.93
6.74
4.44
3.40
3.61
4.65
5.78
6.38
6.32
6.10
6.54
8.28
11.44
15.48
19.67
23.49
26.97
30.48
34.38
38.66
42.93
46.81
50.21
53.63
57.78
63.15
69.70
76.91
84.09
90.72
96.75
102.30
107.11
110.23
110.27
105.91
96.56
82.71
65.83
47.83
30.35
14.50
0.57
-11.91
-23.92
-36.45
-49.91
-63.78
-76.67
-86.90
-93.18
-94.98
-92.58
-86.68
-78.14
-67.93
-57.26
-47.85
-41.46
-39.11
-40.30
-43.20
-45.33
-44.74
-41.00
-35.09
-28.48
-22.19
-16.45
-11.16
-6.52
-3.18
-1.80
-2.18
-2.73
-0.95
5.51
17.47
33.69
51.38
67.30
79.26
86.88
91.48
95.17
99.39
103.62
105.27
100.49
86.02
61.26
29.25
-4.20
-32.82
-52.72
-63.87
-69.11
-71.77
-73.26
-72.77
-68.82
-61.66
-54.22
-50.73
-53.87
-62.33
-71.14
-74.16
-67.45
-51.35
-29.97
-8.58
8.89
21.26
29.45
34.86
38.29
39.80
39.40
37.76
36.31
36.53
39.29
44.51
51.31
58.58
65.45
71.32
75.85
78.85
80.23
80.06
78.46
75.51
71.10
65.10
57.60
49.33
41.69
36.30
34.34
35.92
39.98
44.98
49.80
54.29
59.06
64.61
70.28
74.08
73.41
66.57
53.90
38.04
22.92
12.06
6.97
6.33
6.46
2.60
-9.21
-30.60
-60.16
-93.84
-126.29
-152.71
-170.52
-180.16
-184.69
-188.36
-194.85
-205.95
-221.01
-237.31
-251.01
-258.37
-256.78
-245.63
-226.67
-203.92
-182.68
-167.81
-161.89
-163.89
-169.33
-171.96
-166.44
-150.92
-128.03
-103.71
-84.31
-73.35
-69.90
-69.06
-64.40
-51.06
-27.62
3.87
39.61
76.16
111.61
145.37
176.94
204.69
225.58
236.18
234.49
221.30
200.39
177.19
156.70
141.72
132.01
125.00
117.47
107.33
94.63
81.33
70.16
63.14
60.60
61.01
61.68
59.91
54.00
43.85
30.84
17.25
5.27
-3.77
-9.83
-13.88
-17.26
-20.93
-25.04
-29.02
-32.07
-33.71
-34.08
-33.86
-33.75
-34.01
-34.28
-33.75
-31.67
-27.82
-22.64
-17.12
-12.23
-8.53
-5.83
-3.34
-0.10
4.49
10.32
16.47
21.60
24.54
24.76
22.58
18.90
14.72
10.71
7.03
3.40
-0.58
-5.15
-10.25
-15.48
-20.14
-23.29
-23.91
-21.12
-14.55
-4.62
7.45
19.87
30.94
39.52
45.37
48.99
51.17
52.56
53.34
53.28
51.99
49.27
45.26
40.47
35.63
31.60
28.95
27.71
27.03
25.23
20.26
10.61
-3.91
-21.81
-40.47
-57.21
-70.40
-79.82
-86.29
-90.86
-94.28
-97.17
-100.36
-105.04
-112.12
-121.21
-129.83
-133.76
-128.61
-111.84
-84.11
-49.27
-12.94
19.47
44.22
59.82
66.54
65.65
58.79
47.65
33.99
19.66
6.67
-3.03
-7.78
-6.62
0.36
11.98
26.16
40.54
53.15
62.90
69.53
73.28
74.34
72.61
67.91
60.34
50.70
40.39
31.03
23.82
19.14
16.60
15.36
14.66
14.14
13.79
13.74
13.99
14.28
14.23
13.59
12.40
11.06
10.01
9.55
9.58
9.67
9.33
8.25
6.52
4.56
2.92
1.99
1.86
2.34
3.06
3.70
4.05
4.04
3.65
2.81
1.34
-1.01
-4.41
-8.75
-13.60
-18.29
-22.23
-25.12
-27.08
-28.45
-29.53
-30.32
-30.42
-29.38
-26.94
-23.29
-18.96
-14.47
-9.92
-4.99
0.88
7.92
15.70
23.24
29.40
33.63
36.22
38.26
41.11
45.61
51.56
57.57
61.51
61.41
56.36
47.10
35.92
25.72
18.83
15.86
15.48
15.21
12.84
7.71
1.12
-4.42
-6.62
-4.73
0.17
5.84
10.13
11.98
11.57
9.75
7.31
4.44
0.85
-3.70
-8.96
-14.08
-17.97
-19.87
-19.79
-18.63
-17.79
-18.54
-21.48
-26.21
-31.47
-35.64
-37.26
-35.42
-29.76
-20.44
-8.03
6.34
20.70
32.43
38.97
38.73
31.95
20.66
7.79
-3.90
-12.75
-18.38
-21.39
-22.87
-24.23
-27.00
-32.46
-41.00
-51.51
-61.40
-67.53
-67.64
-61.42
-50.55
-37.67
-25.10
-14.13
-5.25
1.27
4.94
5.47
3.34
0.03
-2.32
-2.01
1.39
6.56
10.73
10.49
2.86
-13.73
-38.61
-68.45
-97.98
-121.48
-134.93
-137.55
-131.91
-122.43
-112.84
-104.48
-96.25
-86.31
-73.97
-60.54
-48.28
-38.18
-28.44
-14.79
7.35
39.91
80.49
122.89
159.70
185.44
198.50
200.99
196.98
190.36
183.46
176.99
170.89
165.08
159.73
154.88
149.94
143.69
134.79
122.41
106.76
89.00
70.62
52.73
35.46
17.72
-2.71
-28.49
-61.48
-101.36
-144.85
-185.99
-217.67
-233.90
-231.68
-211.81
-178.19
-136.31
-91.54
-48.44
-10.58
19.10
38.47
46.77
45.21
36.99
26.32
16.90
10.44
6.22
1.93
-4.87
-15.26
-28.15
-40.72
-49.83
-53.31
-50.70
-42.94
-31.70
-18.54
-4.59
9.37
22.79
35.33
47.02
58.32
69.74
81.33
92.09
100.08
103.14
99.76
89.68
73.97
54.56
33.67
13.55
-3.65
-15.82
-21.22
-19.14
-10.50
1.95
14.17
21.97
22.33
14.30
-0.70
-19.45
-37.99
-52.71
-61.42
-63.72
-60.95
-55.38
-49.40
-44.57
-41.28
-38.65
-34.95
-28.27
-17.20
-1.38
18.26
39.67
60.08
76.75
87.62
91.81
89.82
83.49
75.38
68.04
62.99
60.08
57.37
52.14
42.51
29.04
15.22
6.09
5.89
15.62
32.27
49.98
62.62
66.34
60.74
48.07
31.48
13.38
-5.28
-24.54
-44.60
-65.19
-85.46
-104.25
-120.14
-131.26
-135.04
-128.53
-109.46
-77.48
-35.20
11.88
56.56
91.91
113.05
117.98
107.42
83.84
50.56
11.15
-30.64
-70.95
-106.17
-133.67
-152.56
-163.78
-169.43
-171.79
-172.38
-171.89
-170.41
-167.94
-164.53
-159.96
-153.16
-142.07
-124.10
-97.36
-61.87
-20.04
23.81
64.83
99.17
124.72
140.98
148.34
147.44
139.10
124.73
106.74
88.42
73.28
63.84
60.72
62.44
66.21
69.13
69.37
66.67
62.01
57.05
53.29
51.63
52.31
55.08
59.51
65.22
71.89
79.16
86.43
92.78
97.05
98.04
94.87
87.18
75.19
59.53
41.04
20.38
-1.95
-25.38
-48.96
-71.07
-89.37
-101.00
-103.50
-95.86
-79.72
-59.84
-43.33
-37.53
-47.32
-72.94
-109.50
-148.57
-181.11
-200.53
-204.39
-194.19
-173.64
-146.71
-116.18
-83.45
-49.10
-13.60
22.18
56.95
89.22
117.52
140.66
157.83
168.57
172.61
169.52
158.50
138.46
108.54
68.86
21.12
-31.16
-83.07
-129.08
-163.88
-182.97
-183.20
-163.54
-125.92
-75.59
-20.56
30.55
71.42
100.43
120.92
138.80
158.57
180.22
198.66
206.50
198.24
173.66
138.17
100.01
66.13
39.15
17.13
-4.08
-27.47
-52.64
-75.93
-92.54
-99.21
-95.84
-85.39
-72.28
-60.59
-52.70
-49.02
-48.59
-49.97
-51.92
-53.70
-54.96
-55.61
-55.67
-55.22
-54.40
-53.36
-52.18
-50.73
-48.71
-45.64
-40.90
-33.87
-24.14
-11.83
2.10
15.77
26.68
32.37
31.15
22.74
8.45
-9.23
-27.27
-42.93
-54.31
-60.65
-62.22
-60.12
-55.99
-51.59
-48.53
-47.82
-49.77
-53.92
-59.10
-63.59
-65.39
-62.60
-53.92
-39.29
-20.05
1.21
21.29
37.38
47.87
52.81
53.74
53.01
52.99
55.22
59.99
66.42
72.97
78.01
80.50
80.22
77.64
73.50
68.42
62.59
55.84
47.80
38.31
27.80
17.42
8.87
3.84
3.14
6.18
11.04
15.31
17.24
16.70
15.09
14.45
16.08
19.65
23.24
24.32
21.12
13.45
2.62
-9.37
-20.86
-31.07
-39.95
-47.68
-54.05
-58.36
-59.76
-57.91
-53.46
-48.03
-43.48
-40.88
-39.67
-37.74
-32.27
-21.29
-4.84
14.78
33.75
48.23
55.80
56.15
50.89
42.60
33.81
26.31
20.99
18.02
17.11
17.79
19.52
21.84
24.49
27.41
30.68
34.37
38.40
42.45
45.97
48.27
48.64
46.44
41.20
32.66
20.84
6.05
-11.11
-29.86
-49.31
-68.55
-86.65
-102.68
-115.72
-124.93
-129.80
-130.40
-127.50
-122.46
-116.74
-111.30
-106.17
-100.49
-92.92
-82.33
-68.28
-51.21
-32.24
-12.84
5.39
20.85
31.96
37.38
36.36
29.12
17.03
2.33
-12.47
-25.29
-34.79
-40.32
-41.64
-38.81
-32.35
-23.40
-13.69
-5.00
1.57
6.12
9.78
14.16
20.40
28.66
38.13
47.54
55.80
62.37
67.22
70.53
72.45
73.13
72.89
72.37
72.49
74.35
79.04
87.34
99.48
114.83
131.92
148.70
163.01
172.97
177.11
174.29
163.58
144.56
117.75
85.06
49.61
15.08
-15.43
-40.05
-58.04
-69.28
-73.63
-70.87
-61.29
-46.45
-29.40
-14.07
-3.98
-1.02
-5.03
-14.15
-25.84
-37.84
-48.62
-57.37
-63.68
-67.37
-68.44
-67.21
-64.38
-61.04
-58.50
-58.13
-61.04
-67.76
-77.95
-90.28
-102.62
-112.51
-118.03
-118.42
-114.52
-108.36
-102.35
-98.24
-96.26
-95.03
-92.13
-85.12
-72.46
-54.05
-31.08
-5.51
20.43
44.69
65.62
81.89
92.59
97.21
95.78
88.91
77.76
64.00
49.70
37.22
28.69
25.47
27.40
32.29
35.98
33.70
21.87
-0.17
-29.10
-58.38
-80.20
-88.26
-80.15
-58.11
-28.39
0.70
21.13
27.12
16.63
-8.07
-40.89
-73.42
-97.20
-106.20
-98.40
-76.16
-45.05
-11.81
17.68
39.55
52.10
55.29
49.88
37.05
18.41
-3.74
-26.37
-45.58
-57.27
-58.38
-48.16
-28.95
-5.45
17.20
35.48
48.68
58.31
66.39
73.63
78.74
79.33
73.77
62.44
47.87
33.38
21.41
12.47
5.36
-1.71
-9.95
-19.30
-28.56
-36.03
-40.11
-39.88
-35.27
-27.13
-16.90
-6.24
3.53
11.79
18.81
25.58
33.30
42.84
54.26
66.73
78.89
89.51
97.90
104.07
108.60
111.97
114.51
116.10
116.18
114.13
109.66
102.84
94.10
84.43
74.85
66.83
61.98
61.53
65.80
74.01
83.63
90.54
90.33
79.51
57.74
28.35
-2.74
-29.13
-45.99
-52.19
-51.61
-49.52
-52.06
-61.99
-77.38
-93.88
-109.61
-124.13
-138.03
-152.61
-165.95
-177.13
-185.58
-191.19
-193.88
-192.99
-186.78
-173.42
-152.16
-123.72
-90.86
-56.70
-23.83
5.93
31.35
51.62
65.66
72.26
71.01
62.61
49.57
35.53
23.95
16.98
15.09
17.16
21.26
25.63
29.07
31.20
32.10
31.80
30.08
26.62
21.29
14.24
6.04
-2.50
-10.40
-16.54
-20.01
-20.30
-17.53
-12.53
-6.60
-1.04
3.32
6.55
9.58
13.64
19.78
28.35
39.07
51.21
64.01
76.75
88.68
98.85
106.21
109.93
109.92
106.98
102.61
98.28
94.80
92.14
89.85
87.60
85.42
83.34
80.91
77.00
70.24
59.87
46.34
31.21
16.41
3.31
-7.78
-17.44
-26.38
-34.92
-42.74
-49.25
-53.97
-56.88
-58.52
-59.83
-61.87
-65.51
-71.08
-78.05
-85.10
-90.57
-93.10
-92.04
-87.52
-80.08
-70.32
-58.68
-45.86
-33.06
-21.80
-13.15
-6.94
-1.59
5.14
14.68
26.58
38.36
46.61
48.61
43.40
31.88
15.85
-3.15
-24.38
-47.60
-72.24
-96.69
-118.20
-133.68
-140.80
-138.90
-129.27
-114.61
-97.93
-81.52
-66.31
-52.02
-37.99
-23.94
-10.51
0.94
9.03
13.16
13.76
12.04
9.38
6.82
4.95
4.07
4.50
6.62
10.66
16.48
23.37
30.22
35.91
39.70
41.46
41.59
40.73
39.34
37.63
35.51
32.83
29.54
25.83
22.20
19.31
17.84
18.28
20.82
25.22
30.87
36.95
42.68
47.56
51.46
54.54
57.02
58.96
60.32
61.03
61.19
61.19
61.47
62.26
63.28
63.78
62.83
59.79
54.69
48.25
41.55
35.36
29.76
24.18
17.94
11.00
4.34
-0.43
-1.89
0.21
4.61
8.97
11.07
9.86
5.99
1.28
-2.40
-4.10
-4.21
-3.96
-4.58
-6.61
-9.69
-13.00
-15.86
-18.09
-20.04
-22.20
-24.79
-27.54
-29.77
-30.69
-29.69
-26.61
-21.69
-15.45
-8.55
-1.63
4.72
9.93
13.49
15.09
14.71
12.77
10.02
7.39
5.63
5.09
5.59
6.59
7.49
7.86
7.60
6.85
5.77
4.31
2.16
-1.17
-6.10
-12.70
-20.60
-28.94
-36.71
-42.97
-47.25
-49.65
-50.75
-51.27
-51.76
-52.35
-52.78
-52.70
-51.92
-50.55
-48.77
-46.57
-43.54
-39.08
-32.82
-25.05
-16.79
-9.42
-4.06
-0.98
0.44
1.38
2.88
5.30
8.22
10.61
11.27
9.27
4.17
-3.90
-14.19
-25.43
-36.05
-44.42
-49.33
-50.18
-47.14
-41.06
-33.14
-24.67
-16.73
-10.00
-4.67
-0.49
3.10
6.63
10.38
14.19
17.46
19.46
19.60
17.75
14.32
10.14
6.21
3.37
2.07
2.33
3.82
6.10
8.84
11.88
15.14
18.55
21.87
24.70
26.67
27.62
27.66
27.17
26.54
26.03
25.60
25.03
24.01
22.34
20.06
17.34
14.44
11.54
8.55
5.18
0.95
-4.46
-11.09
-18.55
-26.09
-32.90
-38.41
-42.48
-45.41
-47.78
-50.11
-52.69
-55.43
-57.97
-59.77
-60.33
-59.24
-56.26
-51.35
-44.66
-36.54
-27.53
-18.25
-9.29
-1.07
6.18
12.45
17.78
22.20
25.59
27.72
28.30
27.12
24.20
19.71
14.03
7.57
0.76
-6.03
-12.60
-18.90
-25.08
-31.36
-37.89
-44.54
-50.84
-56.02
-59.31
-60.23
-58.67
-54.96
-49.59
-43.10
-35.95
-28.63
-21.56
-15.16
-9.75
-5.45
-2.12
0.71
3.62
7.07
11.10
15.29
18.94
21.49
22.93
23.94
25.54
28.41
32.38
36.50
39.64
41.32
42.08
43.06
45.11
48.01
50.40
50.58
47.69
42.31
36.29
31.72
29.93
30.81
33.30
36.10
38.58
41.01
44.24
49.04
55.52
62.94
69.87
74.71
76.29
74.20
68.93
61.56
53.38
45.52
38.62
32.86
28.13
24.25
21.11
18.56
16.34
13.96
10.82
6.46
0.76
-5.94
-12.86
-19.10
-23.78
-26.30
-26.33
-23.94
-19.58
-14.08
-8.48
-3.73
-0.43
1.36
2.03
2.10
1.95
1.63
1.00
-0.04
-1.39
-2.75
-3.78
-4.36
-4.68
-5.01
-5.55
-6.22
-6.72
-6.73
-6.14
-5.19
-4.37
-4.21
-5.00
-6.69
-8.90
-11.01
-12.44
-12.82
-12.08
-10.51
-8.61
-6.87
-5.66
-5.02
-4.69
-4.12
-2.60
0.59
5.92
13.46
22.71
32.66
41.97
49.39
54.05
55.63
54.35
50.75
45.47
39.08
32.05
24.75
17.49
10.49
3.83
-2.49
-8.51
-14.20
-19.40
-23.84
-27.26
-29.48
-30.52
-30.64
-30.17
-29.47
-28.79
-28.25
-27.90
-27.76
-27.80
-28.01
-28.35
-28.72
-29.06
-29.30
-29.33
-28.98
-27.97
-26.03
-23.10
-19.49
-15.93
-13.36
-12.58
-13.77
-16.37
-19.23
-21.12
-21.39
-20.34
-19.17
-19.41
-22.17
-27.48
-34.19
-40.41
-44.39
-45.30
-43.69
-41.23
-40.16
-42.51
-49.71
-62.27
-79.41
-98.71
-115.85
-125.27
-121.87
-103.20
-71.19
-31.93
6.43
36.97
56.60
66.68
71.27
74.39
77.82
80.72
81.05
77.52
70.71
62.75
55.91
51.21
48.01
44.64
39.53
32.25
23.68
15.50
9.26
5.62
4.11
3.54
2.74
1.13
-0.96
-2.58
-2.63
-0.40
4.15
10.36
17.18
23.59
28.94
33.16
36.72
40.29
44.35
48.80
52.85
55.24
54.81
51.09
44.64
36.84
29.21
22.79
17.70
13.32
8.89
4.03
-0.98
-5.44
-8.70
-10.58
-11.44
-11.90
-12.42
-13.07
-13.58
-13.55
-12.78
-11.39
-9.77
-8.37
-7.61
-7.72
-8.74
-10.44
-12.47
-14.31
-15.58
-16.11
-16.04
-15.80
-15.78
-16.15
-16.69
-16.91
-16.28
-14.47
-11.52
-7.73
-3.57
0.59
4.46
7.83
10.54
12.55
14.13
15.83
18.36
22.25
27.42
32.99
37.58
39.82
38.99
35.39
30.25
25.20
21.66
20.36
21.17
23.32
25.75
27.47
27.78
26.44
23.59
19.58
14.78
9.46
3.72
-2.29
-8.24
-13.53
-17.50
-19.65
-19.96
-18.93
-17.33
-15.90
-15.08
-15.04
-15.84
-17.58
-20.39
-24.22
-28.67
-32.92
-36.03
-37.29
-36.54
-34.21
-31.14
-28.21
-26.09
-25.11
-25.36
-26.84
-29.49
-33.18
-37.59
-42.14
-46.00
-48.25
-48.13
-45.30
-40.01
-33.07
-25.62
-18.83
-13.46
-9.68
-7.18
-5.37
-3.76
-2.14
-0.59
0.69
1.58
2.14
2.53
2.93
3.38
3.86
4.28
4.69
5.29
6.32
7.97
10.18
12.55
14.46
15.27
14.59
12.48
9.45
6.25
3.59
1.91
1.20
1.16
1.31
1.30
1.02
0.72
0.86
1.96
4.36
8.09
12.81
18.04
23.33
28.49
33.56
38.55
43.30
47.34
50.13
51.37
51.27
50.47
49.78
49.68
50.10
50.46
50.06
48.52
46.12
43.69
42.22
42.32
43.90
46.09
47.70
47.79
46.10
43.16
39.82
36.61
33.43
29.55
23.94
15.73
4.30
-11.01
-31.21
-57.64
-91.11
-130.54
-172.09
-209.60
-236.50
-248.25
-243.76
-225.06
-195.40
-157.06
-110.51
-55.55
6.56
71.47
132.01
180.40
211.24
223.62
221.14
209.96
196.15
183.62
173.54
165.05
156.71
147.56
137.56
127.27
117.00
106.40
94.55
80.60
64.68
48.46
34.82
26.58
24.75
27.36
29.59
25.70
11.63
-12.72
-42.95
-71.68
-91.58
-98.24
-91.63
-75.58
-55.96
-38.47
-27.22
-24.14
-29.01
-39.89
-53.51
-66.03
-74.02
-75.57
-70.82
-61.60
-50.46
-39.57
-30.09
-22.40
-16.65
-13.10
-12.08
-13.48
-16.41
-19.41
-21.09
-20.74
-18.77
-16.35
-14.80
-14.87
-16.40
-18.55
-20.24
-20.76
-19.96
-18.26
-16.30
-14.63
-13.54
-12.99
-12.71
-12.33
-11.52
-10.02
-7.82
-5.05
-2.04
0.80
3.12
4.61
5.07
4.39
2.55
-0.37
-4.15
-8.39
-12.60
-16.25
-18.89
-20.16
-19.77
-17.54
-13.48
-7.94
-1.67
4.28
8.85
11.33
11.58
10.04
7.48
4.63
1.91
-0.60
-3.04
-5.44
-7.67
-9.48
-10.59
-10.93
-10.67
-10.14
-9.70
-9.57
-9.80
-10.29
-10.87
-11.36
-11.61
-11.56
-11.20
-10.67
-10.24
-10.33
-11.40
-13.73
-17.34
-21.88
-26.76
-31.42
-35.54
-39.19
-42.72
-46.47
-50.61
-54.98
-59.17
-62.73
-65.30
-66.74
-67.08
-66.49
-65.18
-63.47
-61.63
-59.80
-57.87
-55.46
-52.07
-47.36
-41.36
-34.54
-27.68
-21.60
-16.84
-13.55
-11.47
-10.07
-8.78
-7.18
-5.10
-2.62
0.06
2.82
5.69
8.87
12.49
16.45
20.30
23.39
25.13
25.24
23.86
21.46
18.58
15.69
13.16
11.30
10.45
10.95
12.97
16.43
20.86
25.55
29.71
32.71
34.19
34.05
32.48
29.77
26.39
22.80
19.44
16.65
14.55
13.07
12.07
11.42
11.04
10.99
11.34
12.09
13.18
14.46
15.77
17.02
18.09
18.88
19.18
18.74
17.37
15.03
11.92
8.46
5.20
2.65
1.13
0.72
1.25
2.38
3.69
4.85
5.61
5.84
5.55
4.76
3.53
1.98
0.35
-1.11
-2.17
-2.83
-3.25
-3.76
-4.62
-5.93
-7.47
-8.84
-9.77
-10.35
-11.03
-12.29
-14.24
-16.54
-18.63
-19.95
-20.33
-20.09
-19.75
-19.55
-19.20
-17.92
-15.04
-10.60
-5.25
0.01
3.95
5.51
4.12
-0.10
-6.26
-13.03
-19.34
-23.69
-24.47
-20.89
-13.42
-3.66
6.18
14.29
19.42
20.65
18.71
15.63
13.07
11.28
9.22
5.08
-2.11
-12.53
-26.24
-41.43
-54.81
-63.21
-64.22
-56.10
-37.92
-9.19
32.50
79.21
116.52
133.73
129.57
109.95
85.24
60.35
38.44
20.94
6.92
-4.69
-13.07
-18.24
-21.26
-23.56
-26.45
-29.79
-32.62
-34.00
-32.09
-24.71
-11.38
5.86
22.87
34.65
37.97
32.24
19.46
4.15
-8.49
-15.21
-15.84
-12.80
-9.67
-9.13
-12.51
-19.97
-30.58
-42.85
-55.34
-66.83
-76.29
-83.07
-86.86
-87.99
-87.43
-86.22
-85.13
-84.53
-84.48
-84.78
-85.17
-85.31
-84.96
-84.05
-82.85
-81.94
-81.89
-82.90
-84.34
-84.75
-82.05
-74.20
-59.75
-38.30
-10.76
20.86
53.74
84.72
110.77
129.59
140.03
142.40
138.31
130.14
120.43
111.27
103.84
98.45
94.66
91.86
89.36
86.60
83.11
78.67
73.41
67.65
61.81
56.12
50.74
45.57
40.35
34.87
29.32
24.55
21.77
22.12
26.00
33.16
42.45
52.08
60.05
64.90
66.60
65.80
63.14
58.44
51.87
43.64
34.15
24.03
14.30
7.32
4.70
6.38
9.69
12.62
13.55
11.80
7.58
2.30
-0.11
3.45
13.60
26.85
40.74
53.23
63.18
69.91
73.47
76.63
81.37
87.65
92.20
94.84
96.73
99.26
102.35
90.59
56.48
5.12
-38.27
-69.21
-88.26
-99.86
-105.96
-109.02
-111.49
-112.75
-111.75
-108.41
-105.61
-103.66
-102.26
-100.95
-99.83
-98.83
-95.79
-89.25
-79.63
-70.41
-63.18
-58.41
-55.72
-54.57
-54.19
-52.63
-48.60
-42.21
-35.62
-29.73
-24.84
-20.82
-17.60
-15.06
-12.54
-9.71
-6.80
-4.82
-3.69
-2.90
-1.91
-0.45
1.58
4.34
7.72
11.38
14.59
17.59
20.68
23.96
27.43
31.49
36.89
44.41
54.65
67.31
82.25
98.26
113.09
124.39
131.00
133.22
132.47
130.63
128.78
128.36
129.59
131.54
132.93
133.10
131.68
127.90
120.44
99.42
61.68
13.12
-34.80
-72.55
-95.71
-104.13
-102.47
-93.85
-81.43
-67.39
-54.38
-45.16
-41.76
-42.49
-44.82
-45.73
-42.90
-36.48
-27.80
-19.56
-14.82
-15.55
-21.37
-29.79
-36.79
-37.96
-30.31
-12.64
13.28
42.71
69.45
87.94
94.82
89.79
75.20
54.37
30.40
4.79
-22.62
-52.58
-84.86
-117.41
-146.40
-167.37
-177.02
-174.22
-160.20
-137.77
-109.94
-79.03
-46.83
-15.37
12.36
32.49
41.65
38.82
26.42
10.01
-3.63
-9.21
-4.84
7.52
23.25
37.23
45.75
47.47
43.30
35.67
27.83
23.14
24.42
32.98
47.68
64.49
77.34
80.32
70.24
48.36
20.24
-6.49
-25.18
-32.73
-30.25
-21.71
-11.59
-2.87
3.58
8.27
11.61
13.07
11.37
5.46
-4.35
-16.13
-26.94
-34.22
-36.92
-35.83
-33.01
-30.61
-29.87
-30.75
-32.47
-34.31
-36.40
-39.68
-45.40
-54.19
-65.44
-77.41
-87.87
-95.05
-98.14
-97.37
-93.44
-87.01
-78.46
-68.24
-57.28
-47.02
-39.00
-34.09
-31.95
-31.27
-30.55
-29.06
-27.14
-25.83
-25.95
-27.36
-28.89
-29.07
-27.04
-23.12
-18.61
-15.22
-14.36
-16.76
-22.49
-31.14
-41.91
-53.70
-65.31
-75.64
-84.02
-90.45
-95.50
-100.15
-105.48
-112.40
-121.29
-131.40
-140.42
-144.48
-138.95
-120.05
-86.69
-41.54
9.36
58.61
100.18
131.47
153.72
170.48
185.17
199.10
211.03
218.31
218.84
212.52
201.37
188.42
176.13
165.32
155.28
144.87
133.59
122.18
112.16
104.86
100.51
98.06
95.63
91.40
84.45
75.06
64.52
54.48
46.25
40.30
36.15
32.60
28.35
22.45
14.62
5.17
-5.20
-15.76
-25.91
-35.18
-43.31
-50.16
-55.87
-60.75
-65.18
-69.32
-72.94
-75.44
-76.25
-75.23
-72.84
-70.04
-67.73
-66.37
-65.68
-65.00
-63.63
-61.30
-58.23
-54.88
-51.63
-48.47
-45.12
-41.17
-36.45
-31.10
-25.56
-20.36
-15.92
-12.45
-9.95
-8.26
-7.12
-6.28
-5.55
-4.81
-4.10
-3.53
-3.19
-3.12
-3.22
-3.32
-3.29
-3.14
-3.05
-3.26
-3.94
-5.09
-6.46
-7.75
-8.79
-9.56
-10.11
-10.40
-10.10
-8.73
-5.83
-1.21
4.99
12.37
20.52
29.16
38.13
47.30
56.45
65.34
73.81
81.82
89.43
96.57
102.97
108.13
111.69
113.59
114.22
114.18
114.04
114.03
114.10
113.90
113.01
110.90
107.05
100.98
92.46
81.72
69.53
57.07
45.48
35.49
27.25
20.30
13.92
7.43
0.35
-7.49
-15.90
-24.47
-32.76
-40.60
-48.29
-56.57
-66.12
-77.10
-88.71
-99.40
-107.46
-111.92
-112.92
-111.65
-109.63
-107.94
-106.79
-105.64
-103.72
-100.60
-96.38
-91.54
-86.67
-82.17
-78.12
-74.34
-70.48
-66.26
-61.66
-56.97
-52.73
-49.42
-47.00
-44.79
-41.51
-35.82
-26.90
-14.94
-1.10
12.83
25.09
34.47
40.49
43.30
43.37
41.22
37.32
32.17
26.41
20.85
16.30
13.18
11.30
9.75
7.16
2.17
-5.98
-17.19
-30.64
-45.17
-59.84
-74.09
-87.72
-100.40
-111.35
-119.17
-122.05
-118.37
-107.38
-89.66
-67.29
-43.44
-21.59
-4.55
6.22
10.88
10.94
8.43
5.35
3.19
2.95
5.37
11.22
21.33
36.34
56.24
79.95
105.25
129.12
148.45
160.89
165.54
163.00
155.01
143.61
130.41
116.22
101.25
85.55
69.56
54.19
40.57
29.52
21.20
15.11
10.47
6.46
2.69
-0.88
-4.07
-6.69
-8.76
-10.52
-12.26
-14.19
-16.23
-18.06
-19.20
-19.32
-18.38
-16.77
-15.22
-14.47
-15.01
-16.94
-19.90
-23.38
-26.91
-30.24
-33.30
-36.07
-38.40
-40.02
-40.65
-40.10
-38.43
-35.84
-32.58
-28.86
-24.88
-20.92
-17.39
-14.74
-13.23
-12.71
-12.61
-12.24
-11.21
-9.77
-8.86
-9.69
-13.33
-20.22
-30.11
-42.19
-55.37
-68.59
-80.91
-91.58
-99.97
-105.71
-108.69
-109.17
-107.67
-104.82
-101.13
-96.90
-92.29
-87.51
-82.90
-78.90
-75.77
-73.32
-70.69
-66.63
-59.93
-50.00
-37.18
-22.63
-7.73
6.61
20.30
33.94
48.12
62.73
76.56
87.68
94.29
95.50
91.64
83.94
73.74
61.93
48.79
34.39
19.19
4.36
-8.40
-17.43
-21.72
-21.25
-16.86
-9.75
-1.02
8.72
19.42
31.33
44.72
59.41
74.55
88.58
99.43
105.17
104.77
98.64
88.71
77.93
69.41
65.49
67.25
74.15
84.11
93.74
98.90
95.62
81.39
56.29
23.58
-10.93
-40.36
-58.81
-62.86
-52.36
-30.01
-0.48
30.61
57.78
76.66
84.87
82.56
72.28
57.97
43.56
31.71
23.13
17.04
12.03
6.96
1.41
-4.43
-10.19
-15.50
-20.02
-23.30
-24.74
-23.81
-20.39
-15.04
-8.96
-3.70
-0.64
-0.56
-3.47
-8.74
-15.47
-22.81
-30.14
-37.06
-43.16
-47.85
-50.38
-49.96
-46.09
-38.80
-28.76
-17.17
-5.49
4.97
13.25
18.83
21.56
21.62
19.33
15.15
9.66
3.49
-2.81
-8.92
-14.67
-19.99
-24.74
-28.70
-31.59
-33.27
-33.84
-33.58
-32.80
-31.62
-29.97
-27.66
-24.65
-21.15
-17.62
-14.56
-12.33
-11.02
-10.43
-10.16
-9.67
-8.41
-5.98
-2.26
2.39
7.19
11.20
13.60
14.12
13.13
11.62
10.90
12.24
16.65
24.65
36.07
49.89
64.25
76.86
85.61
89.39
88.58
84.99
81.13
79.21
80.29
83.94
88.64
92.56
94.39
93.83
91.58
88.93
87.19
87.12
88.64
90.73
91.48
88.48
79.30
62.40
37.81
7.64
-24.32
-53.56
-76.26
-90.39
-96.10
-95.19
-90.04
-82.68
-74.25
-65.32
-56.30
-47.85
-40.80
-35.69
-32.26
-29.19
-24.45
-15.96
-2.54
15.35
35.40
54.11
68.08
75.38
76.44
73.97
71.89
73.72
81.22
93.80
108.76
122.33
130.88
132.01
124.91
110.25
89.54
64.60
37.27
9.42
-16.82
-39.09
-55.12
-63.41
-63.83
-57.92
-48.42
-38.39
-30.19
-24.86
-22.22
-21.32
-21.32
-21.92
-23.49
-26.86
-32.80
-41.60
-52.70
-64.83
-76.21
-85.09
-90.29
-91.57
-89.81
-86.77
-84.49
-84.60
-87.61
-92.75
-98.37
-102.68
-104.62
-104.21
-102.35
-100.29
-99.06
-99.27
-101.05
-104.32
-108.72
-113.55
-117.75
-120.10
-119.82
-117.16
-113.57
-111.04
-110.99
-113.14
-115.23
-113.96
-106.55
-92.38
-73.42
-53.56
-36.86
-26.02
-21.43
-21.68
-24.54
-28.14
-31.47
-34.13
-35.79
-35.83
-33.51
-28.53
-21.46
-13.69
-6.91
-2.30
-0.14
0.26
0.09
0.50
2.22
5.50
10.27
16.33
23.42
31.29
39.65
48.30
57.09
65.95
74.67
82.90
90.23
96.41
101.53
105.93
109.82
112.88
114.09
112.05
105.59
94.33
78.88
60.55
40.86
21.14
2.55
-13.87
-27.04
-36.23
-41.46
-43.86
-45.49
-48.59
-54.69
-63.91
-75.01
-85.95
-94.83
-100.63
-103.44
-104.21
-104.18
-104.32
-104.92
-105.54
-105.15
-102.37
-95.85
-84.59
-68.17
-47.05
-22.65
2.71
26.24
45.34
58.40
65.32
67.44
66.86
65.46
64.16
62.82
60.81
57.78
54.11
50.70
48.19
46.27
43.50
37.87
27.84
13.23
-4.49
-22.66
-38.31
-49.01
-53.42
-51.36
-43.64
-31.69
-17.20
-1.79
13.21
26.99
39.42
51.05
62.96
76.22
91.17
106.77
120.40
128.49
127.78
116.81
96.82
71.62
46.31
25.52
11.87
5.53
4.81
7.38
11.36
15.72
20.15
24.46
28.25
30.90
31.76
30.48
27.18
22.37
16.79
11.20
6.18
2.09
-0.99
-3.16
-4.57
-5.28
-5.23
-4.23
-2.20
0.69
4.00
7.20
9.81
11.64
12.78
13.45
13.84
14.01
13.88
13.40
12.53
11.36
10.01
8.58
7.16
5.76
4.44
3.28
2.37
1.75
1.36
1.07
0.77
0.45
0.26
0.40
0.98
1.89
2.81
3.30
3.05
2.01
0.44
-1.24
-2.63
-3.54
-4.04
-4.40
-4.92
-5.85
-7.31
-9.30
-11.72
-14.34
-16.86
-18.93
-20.24
-20.63
-20.13
-18.93
-17.23
-15.14
-12.65
-9.70
-6.30
-2.63
0.94
4.06
6.49
8.18
9.26
9.94
10.39
10.71
10.94
11.20
11.60
12.32
13.46
15.06
17.12
19.67
22.81
26.70
31.46
37.02
43.09
49.10
54.38
58.35
60.62
61.16
60.19
58.08
55.18
51.84
48.34
44.87
41.60
38.51
35.41
31.96
27.81
22.83
17.23
11.59
6.72
3.37
1.99
2.54
4.52
7.03
9.09
9.85
8.85
6.12
2.14
-2.50
-7.20
-11.52
-15.16
-17.86
-19.45
-19.86
-19.28
-18.22
-17.31
-17.02
-17.46
-18.28
-18.80
-18.24
-15.98
-11.74
-5.69
1.50
8.86
15.37
20.32
23.59
25.64
27.24
28.96
30.83
32.16
31.83
28.85
22.80
14.01
3.41
-7.91
-19.05
-29.36
-38.39
-45.87
-51.79
-56.67
-61.69
-68.35
-77.71
-89.53
-101.74
-111.04
-114.15
-109.44
-97.77
-82.11
-66.12
-52.57
-42.38
-34.80
-28.23
-21.16
-12.51
-1.53
12.41
29.68
49.78
71.05
90.70
105.71
113.97
114.97
109.68
99.86
87.15
72.67
57.08
40.64
23.33
4.70
-15.97
-39.11
-64.02
-88.40
-108.92
-122.47
-127.88
-126.66
-122.53
-119.55
-120.30
-124.66
-130.18
-133.33
-131.02
-121.44
-104.16
-79.71
-49.23
-14.48
22.21
57.96
89.86
115.64
134.18
145.67
151.16
151.91
148.79
142.22
132.23
118.88
102.47
83.56
62.87
41.30
20.15
1.36
-12.36
-18.12
-13.84
0.51
22.30
46.64
68.06
82.34
88.04
86.47
80.58
73.28
66.24
59.80
53.72
47.88
42.68
38.69
36.10
34.40
32.82
30.87
28.94
28.39
31.02
38.22
50.11
65.21
80.52
92.32
97.14
92.61
78.01
54.24
23.49
-11.30
-46.85
-79.95
-107.69
-127.95
-139.68
-143.07
-139.36
-130.29
-117.71
-103.28
-88.45
-74.53
-62.51
-52.77
-44.85
-37.72
-30.30
-22.31
-14.60
-8.84
-6.73
-9.14
-15.68
-24.68
-33.43
-38.47
-36.30
-24.30
-2.18
26.87
56.06
76.57
80.41
63.47
27.36
-21.06
-72.01
-116.12
-146.97
-162.03
-161.93
-149.20
-127.10
-99.18
-69.26
-41.12
-18.04
-2.08
6.45
8.91
7.71
5.34
3.63
3.41
4.67
6.85
9.11
10.63
10.72
8.93
5.22
-0.03
-6.24
-13.00
-20.24
-28.03
-36.15
-43.79
-49.60
-52.15
-50.66
-45.51
-38.08
-30.13
-22.95
-16.87
-11.38
-5.81
-0.16
4.52
6.31
3.28
-5.58
-19.67
-36.80
-53.63
-66.50
-72.45
-69.84
-58.81
-41.25
-20.44
-0.19
15.91
25.49
27.81
23.77
15.49
5.61
-3.42
-9.86
-12.89
-12.52
-9.37
-4.34
1.60
7.66
13.24
17.85
21.14
22.88
23.01
21.66
19.10
15.64
11.51
6.75
1.34
-4.75
-11.35
-18.11
-24.54
-30.21
-34.90
-38.65
-41.57
-43.59
-44.21
-42.48
-37.36
-28.12
-14.96
0.88
17.40
32.44
44.36
52.31
56.18
56.20
52.62
45.71
36.04
24.85
14.05
5.83
1.98
3.23
9.07
18.04
28.39
38.74
48.52
57.78
66.96
76.29
85.55
94.01
100.76
105.11
106.96
106.83
105.55
103.91
102.25
100.34
97.57
93.27
87.03
78.84
69.11
58.48
47.68
37.32
27.84
19.60
13.16
9.55
10.22
16.47
28.64
45.22
62.85
77.09
83.97
81.39
69.77
51.65
30.45
9.25
-9.88
-25.82
-37.92
-45.64
-48.59
-46.80
-40.96
-32.32
-22.34
-12.26
-3.00
4.89
11.02
15.15
17.31
17.84
17.41
16.68
16.03
15.42
14.46
12.83
10.47
7.73
5.15
3.23
2.13
1.79
2.06
2.93
4.61
7.40
11.45
16.54
22.18
27.67
32.37
35.69
37.19
36.53
33.51
28.37
21.95
15.64
10.71
7.50
4.95
0.95
-6.67
-18.82
-34.53
-51.35
-66.47
-78.13
-86.14
-91.65
-96.09
-100.13
-103.39
-104.84
-103.61
-99.64
-93.84
-87.61
-82.20
-78.36
-76.04
-74.61
-73.11
-70.88
-67.79
-64.41
-61.73
-60.72
-61.97
-65.40
-70.45
-76.39
-82.70
-89.11
-95.38
-101.14
-105.78
-108.83
-110.26
-110.56
-110.34
-109.60
-107.28
-101.48
-90.50
-74.10
-54.19
-34.48
-18.99
-10.41
-9.03
-12.97
-19.35
-25.92
-31.86
-37.70
-44.36
-52.06
-59.79
-65.62
-67.69
-65.05
-58.14
-48.48
-37.83
-27.45
-17.67
-8.10
1.90
12.69
24.02
35.18
45.40
54.23
61.75
68.47
74.99
81.61
88.13
93.97
98.51
101.43
102.92
103.45
103.45
103.01
101.83
99.48
95.84
91.31
86.81
83.36
81.62
81.53
82.47
83.58
84.19
84.05
83.17
81.48
78.52
73.54
65.80
55.23
42.80
30.31
19.63
11.72
5.93
0.16
-8.08
-20.38
-36.44
-54.05
-69.89
-80.91
-85.30
-82.81
-74.38
-61.43
-45.49
-28.17
-11.29
3.15
13.44
18.72
19.34
16.77
12.92
9.45
7.31
6.73
7.56
9.58
12.66
16.62
21.19
25.85
30.05
33.32
35.44
36.36
36.13
34.83
32.52
29.32
25.45
21.25
17.14
13.58
10.86
9.06
7.90
6.85
5.20
2.42
-1.66
-6.65
-11.78
-16.24
-19.72
-22.54
-25.63
-29.93
-35.87
-42.93
-49.74
-54.64
-56.41
-54.74
-50.28
-44.27
-37.89
-31.78
-25.98
-20.06
-13.63
-6.52
1.11
8.93
16.63
24.00
30.88
37.04
42.13
45.78
47.79
48.40
48.28
48.36
49.37
51.39
53.67
54.98
54.17
50.92
45.97
40.83
37.01
35.21
34.96
34.94
33.77
30.82
26.58
22.29
19.21
17.93
18.03
18.45
18.00
15.97
12.39
7.89
3.51
0.28
-1.06
-0.26
2.25
5.49
8.12
8.90
7.23
3.41
-1.29
-5.00
-5.84
-2.62
4.60
14.36
24.13
31.10
33.14
29.53
21.16
10.15
-1.09
-10.84
-18.99
-27.18
-38.25
-54.88
-78.04
-105.98
-134.23
-157.05
-169.60
-169.94
-159.76
-143.30
-125.15
-108.12
-92.35
-76.11
-57.44
-35.66
-11.66
12.76
35.86
56.23
72.40
82.35
83.79
75.08
56.65
31.63
5.19
-16.97
-30.36
-32.55
-23.10
-3.04
25.48
59.09
92.97
121.28
138.42
140.96
128.93
105.94
77.73
50.08
27.09
10.36
-0.57
-7.13
-10.83
-12.75
-13.52
-13.60
-13.42
-13.35
-13.55
-13.97
-14.33
-14.35
-13.85
-12.86
-11.60
-10.47
-9.93
-10.34
-11.87
-14.27
-16.89
-18.74
-18.89
-16.87
-12.93
-8.03
-3.45
-0.28
1.05
0.87
0.05
-0.46
-0.04
1.32
3.13
4.65
5.19
4.31
1.97
-1.56
-5.78
-10.11
-13.98
-16.92
-18.68
-19.30
-19.15
-18.87
-19.07
-20.01
-21.30
-21.94
-20.76
-17.07
-11.12
-4.02
2.99
9.51
16.37
25.10
36.71
50.39
63.35
71.97
73.65
68.46
59.38
51.07
47.86
52.16
64.04
81.65
102.07
121.72
136.29
140.90
130.71
102.55
56.93
-0.85
-61.38
-113.73
-148.92
-162.67
-156.24
-135.13
-106.65
-77.48
-52.32
-33.72
-22.59
-18.73
-21.17
-28.31
-38.01
-47.93
-55.98
-60.71
-61.40
-57.94
-50.75
-40.82
-29.41
-17.73
-6.44
4.46
15.04
24.69
31.83
34.27
30.52
21.07
8.71
-2.40
-8.64
-8.70
-4.21
1.12
3.31
0.05
-8.40
-19.68
-30.80
-39.60
-45.47
-48.98
-50.80
-50.87
-48.32
-42.23
-32.88
-22.29
-13.73
-10.35
-13.63
-22.66
-34.71
-46.72
-56.80
-64.91
-72.21
-79.78
-87.35
-92.94
-93.42
-85.78
-68.35
-41.45
-7.28
30.90
69.64
106.01
137.67
162.53
178.49
183.34
175.47
154.60
122.46
82.75
40.29
-0.11
-34.95
-62.47
-82.38
-94.99
-100.44
-98.30
-87.89
-69.11
-43.14
-12.81
17.92
44.97
65.27
77.57
82.52
82.05
78.41
73.33
67.58
61.07
53.41
44.28
33.93
23.18
13.29
5.53
0.73
-1.03
-0.48
1.24
2.93
3.82
3.64
2.50
0.67
-1.63
-4.23
-7.00
-9.85
-12.62
-15.30
-18.21
-21.85
-26.70
-32.94
-40.42
-48.57
-56.53
-63.24
-67.58
-68.68
-66.24
-60.72
-53.29
-45.56
-39.03
-34.81
-33.41
-35.24
-41.09
-51.93
-68.14
-88.56
-110.08
-127.93
-137.09
-133.50
-115.92
-86.96
-52.28
-18.62
8.29
24.90
30.70
27.29
18.30
6.95
-5.80
-21.09
-40.41
-63.55
-88.24
-109.60
-122.27
-120.44
-101.07
-65.96
-21.25
25.00
65.52
94.80
111.42
116.89
117.07
118.56
125.57
139.25
159.04
184.48
214.77
250.17
275.08
275.53
249.11
205.63
156.92
110.30
75.04
50.10
36.13
33.46
42.93
63.26
86.16
101.61
100.59
78.82
37.59
-14.55
-65.70
-102.58
-116.09
-105.18
-76.63
-41.94
-12.83
1.38
-2.90
-24.66
-58.21
-95.86
-130.57
-157.12
-172.46
-175.46
-167.22
-149.70
-125.81
-98.15
-68.86
-39.78
-12.23
12.90
35.00
53.07
66.06
72.67
72.20
65.14
53.38
39.98
28.26
20.85
18.63
20.77
25.10
29.05
30.56
28.61
23.38
15.95
8.01
1.46
-2.01
-1.34
3.54
11.65
21.26
30.52
37.92
42.66
44.54
43.86
41.16
37.18
32.72
28.53
25.10
22.45
20.19
17.78
14.89
11.64
8.52
6.17
5.06
5.30
6.62
8.43
10.04
10.67
9.74
6.99
2.71
-2.22
-6.59
-9.28
-9.66
-7.86
-4.59
-0.64
3.60
8.42
14.65
23.19
34.39
47.55
60.90
71.93
78.04
77.09
67.98
50.83
27.10
-0.75
-29.77
-57.17
-80.86
-99.79
-113.77
-123.09
-127.99
-128.56
-124.88
-117.50
-107.73
-97.72
-89.88
-86.15
-87.27
-92.43
-99.50
-105.57
-107.87
-104.60
-95.67
-82.89
-69.44
-58.68
-52.90
-52.27
-54.83
-57.43
-57.12
-52.43
-43.56
-31.70
-17.78
-1.74
17.42
40.80
68.47
98.97
129.37
155.89
174.60
182.16
176.36
156.71
124.97
85.26
43.50
6.21
-21.12
-35.27
-35.98
-25.64
-8.33
11.44
29.88
44.59
54.68
60.43
62.75
62.74
61.73
61.44
64.00
71.31
83.93
100.12
115.82
126.02
126.69
116.60
97.84
74.85
52.37
33.63
19.55
9.15
0.79
-6.71
-13.67
-19.86
-25.29
-30.71
-37.45
-46.93
-59.91
-76.04
-94.13
-112.80
-131.24
-149.76
-169.84
-193.55
-222.39
-255.80
-290.08
-318.37
-332.11
-323.69
-289.44
-231.63
-158.43
-81.69
-13.43
37.60
67.80
78.72
75.58
64.94
52.72
43.12
38.53
40.07
47.86
61.27
78.78
98.31
117.28
132.96
143.14
147.02
145.60
141.07
135.57
130.14
125.07
119.89
113.46
104.44
92.10
76.75
59.25
40.45
20.45
-0.32
-21.45
-43.46
-67.86
-95.76
-126.40
-156.73
-181.87
-196.84
-196.35
-177.00
-139.38
-88.18
-29.80
30.28
88.61
143.55
187.44
210.36
209.05
190.44
165.10
140.90
121.59
107.58
99.21
91.43
81.44
69.00
55.10
40.81
27.09
14.59
3.83
-4.78
-11.72
-16.11
-16.20
-10.89
-0.90
11.55
23.76
33.61
40.34
44.47
48.70
56.12
68.15
83.57
99.28
111.92
119.09
119.86
114.41
104.36
91.76
78.38
65.35
53.42
43.06
34.47
27.31
20.72
13.95
6.51
-1.84
-11.15
-21.34
-32.11
-42.89
-52.77
-60.65
-65.47
-66.69
-64.63
-60.61
-56.53
-54.29
-55.18
-59.54
-66.76
-75.78
-85.61
-95.77
-106.23
-117.06
-127.85
-137.55
-144.56
-147.49
-145.92
-140.85
-134.45
-129.20
-126.68
-126.96
-128.66
-129.69
-128.42
-124.30
-117.75
-109.55
-100.53
-91.73
-84.95
-82.76
-87.23
-98.06
-111.14
-118.92
-113.32
-89.63
-49.56
-1.23
44.03
76.51
91.86
91.91
82.47
69.61
56.98
45.25
33.71
22.24
12.33
6.41
6.39
12.10
20.90
28.92
32.87
31.68
26.85
21.69
19.55
22.30
29.69
39.69
49.70
57.78
63.31
66.92
69.80
72.81
75.98
78.52
79.18
76.97
71.58
63.59
54.28
45.21
37.70
32.49
29.64
28.60
28.57
28.82
28.91
28.77
28.60
28.67
29.17
30.10
31.24
32.26
32.80
32.55
31.31
29.09
26.11
22.88
20.18
18.89
19.83
23.47
29.71
37.75
46.02
52.40
54.65
51.07
41.17
26.09
8.48
-8.18
-20.65
-26.94
-26.88
-21.99
-14.84
-8.22
-4.40
-4.73
-9.66
-18.81
-31.19
-45.23
-58.99
-70.45
-78.00
-80.87
-79.44
-75.06
-69.58
-64.60
-60.94
-58.55
-56.96
-55.90
-55.78
-57.55
-62.13
-69.71
-79.27
-88.85
-96.27
-100.03
-99.84
-96.57
-91.70
-86.59
-81.88
-77.38
-72.36
-65.95
-57.56
-47.02
-34.48
-20.15
-4.20
13.17
31.52
49.88
66.79
80.56
89.76
93.64
92.14
85.65
74.58
59.16
39.40
15.49
-11.70
-40.47
-68.38
-92.82
-111.64
-123.67
-128.93
-128.43
-123.69
-116.08
-106.27
-94.06
-78.60
-58.90
-34.48
-5.79
25.69
57.73
87.66
112.82
130.86
140.13
139.92
130.84
114.96
95.67
77.13
63.24
56.62
57.88
65.45
76.11
86.01
91.84
91.82
86.00
75.99
64.14
52.64
42.94
35.60
30.61
27.78
26.94
27.91
30.31
33.41
36.27
38.02
38.25
37.25
35.91
35.45
36.97
40.97
47.06
53.96
59.89
63.22
63.13
59.79
54.18
47.36
39.92
31.71
22.19
11.01
-1.53
-14.49
-26.72
-37.36
-46.18
-53.50
-59.76
-65.27
-70.00
-73.71
-76.10
-76.98
-76.28
-74.04
-70.35
-65.44
-59.66
-53.44
-47.13
-40.91
-34.67
-28.13
-21.05
-13.37
-5.33
2.70
10.45
17.82
24.96
32.03
39.07
45.92
52.30
57.95
62.58
65.82
67.14
65.92
61.91
55.55
48.19
41.83
38.44
39.22
44.16
52.16
61.47
70.28
77.10
80.91
81.09
77.40
69.94
59.21
46.10
31.74
17.28
3.60
-8.76
-19.81
-29.94
-39.84
-50.12
-61.04
-72.33
-83.21
-92.67
-99.90
-104.57
-106.96
-107.72
-107.57
-107.06
-106.53
-106.23
-106.51
-107.69
-109.88
-112.68
-115.13
-116.02
-114.39
-110.05
-103.62
-96.25
-89.05
-82.52
-76.53
-70.55
-64.27
-57.99
-52.61
-49.31
-49.00
-51.94
-57.55
-64.57
-71.28
-75.77
-76.24
-71.40
-60.84
-45.43
-27.24
-9.05
6.39
17.21
22.84
24.08
22.68
20.73
19.88
20.74
22.53
23.51
21.95
17.43
11.64
8.17
11.10
23.14
44.14
70.77
97.63
119.22
131.68
133.69
126.21
111.72
93.22
73.51
54.92
39.06
26.74
17.82
11.18
5.10
-2.23
-11.99
-24.13
-37.24
-48.95
-56.76
-59.02
-55.41
-46.99
-35.54
-22.79
-9.87
2.76
15.00
26.64
37.11
45.64
51.59
54.88
56.07
56.16
56.16
56.62
57.53
58.29
58.02
56.06
52.30
47.33
42.11
37.68
34.77
33.67
34.10
35.24
35.99
35.37
32.87
28.47
22.85
17.10
12.83
11.37
13.25
18.06
24.81
32.27
39.19
44.71
48.40
51.20
54.10
57.37
60.47
62.61
63.12
61.21
56.70
49.59
42.37
37.40
35.56
36.19
38.26
41.03
43.29
44.62
44.34
45.38
50.18
58.88
69.24
78.74
85.71
88.42
87.25
83.19
82.35
90.18
108.42
134.92
166.54
201.23
237.17
275.04
286.57
254.87
184.42
96.59
10.82
-63.29
-116.01
-154.04
-181.20
-200.59
-211.32
-213.88
-211.71
-209.57
-210.53
-214.56
-220.83
-226.29
-229.12
-225.50
-213.59
-194.99
-174.10
-155.28
-141.07
-132.88
-129.28
-128.44
-126.58
-121.00
-111.49
-99.97
-88.72
-79.06
-71.82
-66.35
-61.99
-57.32
-51.45
-44.50
-37.36
-30.98
-25.96
-22.95
-22.03
-23.19
-25.90
-29.50
-33.61
-38.28
-43.77
-50.12
-56.93
-62.84
-65.90
-64.03
-55.68
-40.41
-19.12
6.14
32.62
57.40
78.01
92.90
101.73
105.39
105.63
104.44
103.35
103.06
103.46
103.97
104.00
103.24
101.62
99.19
96.03
92.31
88.37
84.76
82.05
80.60
80.25
80.48
80.56
79.91
78.25
75.52
71.78
67.14
61.75
55.99
50.45
45.80
42.38
40.01
37.94
35.23
31.20
25.82
19.65
13.49
7.78
2.32
-3.80
-11.76
-22.62
-36.89
-54.34
-74.07
-94.58
-114.02
-130.42
-141.94
-147.27
-145.95
-138.50
-126.36
-111.41
-95.43
-79.54
-64.07
-48.70
-32.91
-16.53
0.09
16.07
30.40
42.22
51.04
56.69
59.16
58.44
54.65
48.22
39.99
31.18
23.15
16.99
13.27
11.87
12.09
12.95
13.47
12.89
10.87
7.46
3.16
-1.29
-5.03
-7.26
-7.48
-5.61
-1.96
2.79
7.78
12.19
15.43
17.20
17.44
16.28
13.90
10.52
6.45
2.06
-2.17
-5.80
-8.47
-9.97
-10.25
-9.40
-7.59
-4.99
-1.81
1.77
5.64
9.77
14.14
18.72
23.44
28.11
32.48
36.25
39.17
41.10
42.05
42.23
41.94
41.52
41.10
40.50
39.25
36.74
32.61
27.04
20.88
15.45
12.15
11.95
15.06
20.91
28.21
35.43
41.08
44.16
44.37
42.19
38.73
35.43
33.64
34.19
37.19
42.04
47.68
52.96
56.90
58.94
58.94
57.14
53.99
50.07
45.96
42.22
39.34
37.58
36.96
37.08
37.19
36.29
33.34
27.61
18.93
7.73
-5.03
-18.09
-30.34
-41.01
-49.79
-56.68
-61.77
-65.01
-66.12
-64.72
-60.51
-53.50
-44.02
-32.67
-20.13
-7.02
6.18
19.20
31.84
44.04
55.83
67.20
77.99
87.55
94.47
96.56
91.19
76.30
51.45
18.53
-18.53
-54.89
-86.46
-111.17
-129.15
-142.08
-151.96
-160.34
-168.15
-176.02
-184.40
-193.27
-201.56
-206.85
-205.95
-196.12
-176.37
-147.90
-113.66
-77.05
-40.94
-7.20
23.08
49.05
69.91
84.98
94.12
98.06
98.27
96.65
94.96
94.46
95.68
98.52
102.40
106.54
110.26
113.11
114.94
115.76
115.68
114.82
113.25
110.91
107.51
102.43
94.81
84.00
69.94
53.39
35.68
18.06
1.10
-15.60
-33.02
-52.00
-72.58
-93.87
-114.38
-132.65
-147.76
-159.40
-167.73
-173.07
-175.77
-176.21
-174.82
-171.85
-167.34
-161.07
-152.90
-143.10
-132.58
-122.54
-113.99
-107.12
-101.18
-94.86
-87.01
-77.19
-65.82
-53.76
-41.81
-30.38
-19.59
-9.66
-1.11
5.29
8.99
10.06
9.39
8.40
8.51
10.60
14.73
20.23
26.03
31.10
34.76
36.81
37.52
37.41
36.99
36.52
35.90
34.79
32.80
29.73
25.62
20.83
15.79
10.91
6.49
2.71
-0.35
-2.75
-4.69
-6.44
-8.20
-9.92
-11.21
-11.39
-9.71
-5.70
0.69
9.03
18.69
29.03
39.57
49.92
59.71
68.35
75.15
79.43
80.83
79.36
75.36
69.30
61.55
52.41
42.18
31.17
19.67
7.87
-4.32
-17.05
-30.35
-43.85
-56.75
-68.10
-77.12
-83.48
-87.17
-88.26
-86.51
-81.41
-72.47
-59.61
-43.51
-25.46
-7.01
10.59
26.63
40.87
53.26
63.39
70.53
73.60
71.74
64.68
52.96
38.01
21.85
6.62
-5.86
-14.33
-18.49
-18.97
-17.22
-15.08
-14.02
-14.75
-17.03
-19.92
-22.29
-23.44
-23.40
-22.86
-22.77
-23.55
-25.20
-27.47
-30.28
-33.87
-38.73
-45.16
-52.84
-60.62
-66.13
-67.06
-62.02
-50.92
-34.64
-14.69
7.09
28.62
47.63
62.87
73.11
77.24
75.02
68.03
59.54
53.31
52.20
57.12
68.72
85.60
104.48
121.32
133.06
138.44
137.74
132.30
124.01
117.35
115.86
120.56
129.97
141.56
153.00
162.48
168.79
158.19
125.28
76.08
24.16
-19.40
-50.53
-70.24
-81.74
-87.90
-92.67
-96.44
-99.08
-101.14
-103.69
-107.22
-111.25
-114.41
-115.60
-114.54
-109.83
-100.99
-89.04
-76.02
-63.85
-53.63
-45.73
-40.15
-36.71
-33.84
-30.34
-26.06
-21.73
-18.23
-15.94
-14.74
-14.23
-14.00
-13.18
-11.25
-8.38
-5.19
-2.33
-0.18
1.16
1.69
1.47
0.84
0.16
-0.38
-0.74
-1.02
-1.35
-1.85
-2.59
-3.57
-4.64
-5.60
-6.22
-6.40
-6.18
-5.71
-5.22
-4.91
-4.81
-4.83
-4.71
-4.21
-3.17
-1.61
0.31
2.35
4.31
6.13
7.83
9.47
11.10
12.67
14.14
15.44
16.57
17.57
18.40
19.02
19.27
19.05
18.31
17.15
15.78
14.38
13.10
11.90
10.70
9.41
8.03
6.64
5.33
4.19
3.19
2.23
1.23
0.14
-1.01
-2.12
-3.09
-3.90
-4.56
-5.14
-5.73
-6.39
-7.16
-8.04
-8.98
-9.82
-10.39
-10.44
-9.83
-8.52
-6.60
-4.29
-1.77
0.77
3.26
5.59
7.68
9.37
10.58
11.25
11.47
11.38
11.16
10.91
10.67
10.42
10.16
9.89
9.65
9.44
9.28
9.11
8.94
8.74
8.57
8.44
8.37
8.30
8.11
7.71
7.04
6.13
5.12
4.14
3.30
2.63
2.02
1.33
0.44
-0.71
-2.10
-3.62
-5.14
-6.48
-7.47
-7.94
-7.78
-6.93
-5.55
-3.91
-2.32
-1.05
-0.16
0.41
0.87
1.37
1.96
2.61
3.21
3.65
3.89
3.98
4.01
4.07
4.22
4.45
4.71
4.91
4.99
4.95
4.85
4.74
4.64
4.50
4.23
3.74
3.02
2.12
1.16
0.22
-0.66
-1.52
-2.37
-3.26
-4.14
-5.02
-5.88
-6.77
-7.76
-8.90
-10.14
-11.35
-12.30
-12.77
-12.57
-11.64
-10.06
-8.00
-5.71
-3.37
-1.15
0.89
2.71
4.31
5.63
6.67
7.44
7.99
8.39
8.72
8.97
9.10
9.02
8.71
8.26
7.78
7.40
7.21
7.15
7.11
6.96
6.64
6.15
5.58
5.04
4.61
4.30
4.00
3.60
2.96
2.02
0.84
-0.46
-1.71
-2.76
-3.54
-4.09
-4.51
-4.96
-5.58
-6.45
-7.54
-8.67
-9.56
-9.91
-9.45
-8.09
-5.93
-3.23
-0.34
2.39
4.75
6.60
7.96
8.89
9.50
9.91
10.23
10.52
10.80
11.04
11.14
11.03
10.68
10.13
9.50
8.87
8.24
7.57
6.76
5.80
4.76
3.77
2.96
2.39
2.02
1.79
1.63
1.52
1.46
1.45
1.44
1.42
1.35
1.24
1.11
0.97
0.79
0.56
0.23
-0.22
-0.76
-1.36
-1.99
-2.55
-2.91
-2.92
-2.48
-1.60
-0.41
0.84
1.90
2.60
2.88
2.78
2.40
1.79
1.00
0.09
-0.85
-1.71
-2.37
-2.80
-3.06
-3.25
-3.47
-3.78
-4.13
-4.45
-4.67
-4.77
-4.75
-4.65
-4.53
-4.46
-4.49
-4.67
-5.00
-5.43
-5.91
-6.33
-6.66
-6.86
-6.99
-7.12
-7.33
-7.66
-8.10
-8.57
-8.95
-9.16
-9.16
-8.95
-8.56
-7.97
-7.11
-5.91
-4.32
-2.38
-0.25
1.87
3.79
5.39
6.57
7.33
7.69
7.71
7.47
7.10
6.68
6.31
6.04
5.89
5.84
5.84
5.83
5.70
5.41
4.96
4.43
3.96
3.62
3.42
3.25
2.95
2.39
1.57
0.58
-0.43
-1.33
-2.06
-2.68
-3.27
-3.93
-4.66
-5.47
-6.28
-7.02
-7.62
-7.97
-7.97
-7.53
-6.64
-5.35
-3.81
-2.18
-0.57
0.92
2.24
3.33
4.09
4.48
4.49
4.24
3.92
3.69
3.67
3.83
4.05
4.24
4.34
4.36
4.34
4.34
4.36
4.37
4.35
4.28
4.13
3.89
3.52
3.01
2.38
1.69
1.04
0.50
0.11
-0.16
-0.44
-0.84
-1.42
-2.15
-2.96
-3.77
-4.54
-5.21
-5.71
-5.92
-5.70
-4.94
-3.60
-1.81
0.18
2.11
3.89
5.56
7.17
8.75
10.17
11.31
12.04
12.38
12.50
12.85
13.72
15.08
16.61
17.96
19.01
19.83
20.69
21.81
23.69
26.41
29.60
32.62
35.05
36.83
38.23
39.62
41.24
43.78
47.39
51.41
54.73
56.36
55.97
53.81
50.55
46.89
44.19
43.12
43.25
43.26
41.72
37.74
30.86
21.10
3.55
-22.29
-52.00
-78.62
-97.23
-106.64
-107.83
-103.18
-93.84
-80.22
-61.86
-39.15
-13.59
12.71
36.35
54.64
65.72
68.73
63.66
52.07
36.06
17.67
-1.47
-20.14
-37.35
-52.50
-65.13
-75.01
-81.45
-84.09
-83.17
-79.65
-74.84
-69.80
-65.19
-61.11
-57.36
-53.39
-48.87
-43.88
-38.84
-34.20
-30.06
-26.24
-22.39
-18.15
-13.26
-7.73
-1.82
4.01
9.27
13.60
16.72
18.48
18.81
17.82
15.82
13.28
10.79
8.83
7.74
7.57
8.17
9.29
10.73
12.40
14.30
16.51
19.02
21.87
25.03
28.51
32.17
35.74
38.80
40.92
41.74
41.13
39.22
36.38
33.01
29.46
25.81
22.01
17.95
13.59
8.98
4.43
0.34
-2.92
-5.26
-6.85
-7.98
-8.89
-9.60
-10.04
-9.85
-8.61
-6.30
-3.47
-1.06
0.13
-0.18
-1.58
-3.65
-5.57
-6.53
-6.36
-5.76
-5.97
-8.13
-12.88
-20.27
-30.48
-42.67
-55.09
-65.79
-73.51
-77.97
-79.58
-79.45
-78.94
-80.04
-83.12
-86.48
-87.22
-82.53
-70.71
-51.34
-25.66
8.18
44.57
73.72
88.66
89.27
80.03
65.83
50.34
34.53
19.08
4.12
-9.19
-19.12
-24.83
-25.28
-21.89
-16.97
-12.79
-10.69
-11.58
-14.59
-17.40
-17.52
-13.50
-5.62
4.77
15.80
25.84
33.51
38.69
42.35
45.66
49.16
52.29
53.95
52.97
48.65
40.87
30.55
19.44
9.45
1.90
-2.95
-5.59
-6.90
-7.79
-9.08
-11.42
-15.26
-20.90
-28.23
-36.48
-44.04
-48.91
-49.50
-45.36
-37.36
-27.42
-17.80
-10.40
-6.37
-5.89
-8.05
-11.04
-12.34
-9.61
-1.58
11.09
25.82
39.00
47.57
50.27
48.04
43.19
38.05
33.83
30.41
27.02
23.24
19.53
16.99
16.64
18.58
21.84
24.86
26.36
25.96
24.22
22.21
20.77
20.06
19.55
18.36
15.84
11.88
6.91
1.73
-2.88
-6.35
-8.51
-9.49
-9.70
-9.62
-9.69
-10.21
-11.18
-12.46
-13.83
-15.19
-16.60
-18.18
-19.82
-21.09
-21.36
-20.28
-18.22
-16.35
-16.20
-18.78
-23.88
-29.92
-34.56
-35.86
-33.21
-27.56
-20.77
-14.62
-9.95
-6.59
-3.76
-0.88
2.00
4.32
5.42
5.03
3.49
1.52
-0.15
-1.19
-1.75
-2.33
-3.39
-5.14
-7.34
-9.43
-10.70
-10.60
-9.04
-6.38
-3.31
-0.51
1.72
3.51
5.29
7.57
10.54
13.98
17.41
20.32
22.49
24.05
25.19
26.11
26.81
27.18
27.10
26.57
25.74
24.80
23.93
23.02
21.93
20.58
19.01
17.36
15.74
14.17
12.54
10.76
8.45
5.36
1.54
-2.66
-6.81
-10.52
-13.51
-15.49
-16.04
-15.36
-13.86
-12.06
-10.58
-10.01
-10.84
-13.18
-16.64
-20.34
-24.17
-28.15
-32.37
-36.83
-41.54
-46.69
-52.59
-59.45
-63.74
-62.90
-56.16
-45.06
-31.98
-18.66
-5.92
5.96
16.30
26.29
36.17
45.74
54.59
62.25
68.14
71.70
71.72
67.94
61.27
52.73
43.58
34.97
27.65
21.85
17.33
13.51
10.04
6.99
4.16
1.50
-0.73
-2.08
-2.12
-0.86
0.81
1.82
1.55
-0.29
-3.35
-6.95
-10.56
-14.01
-17.65
-22.44
-28.67
-35.30
-40.65
-43.04
-41.72
-37.38
-31.61
-26.29
-23.43
-23.64
-25.89
-28.35
-29.22
-27.22
-21.75
-12.22
5.15
30.48
59.37
84.87
100.85
104.43
97.52
82.81
63.50
42.77
22.35
2.85
-14.14
-27.97
-39.13
-48.81
-58.07
-66.49
-72.21
-73.25
-68.16
-56.76
-40.81
-23.19
-6.67
6.98
17.64
26.26
33.56
39.86
45.12
49.07
51.62
53.15
54.31
55.96
58.55
61.53
63.47
62.70
58.00
49.43
38.41
27.03
17.01
8.82
1.51
-6.32
-15.42
-25.22
-34.07
-40.21
-42.80
-42.27
-40.04
-37.60
-35.69
-34.05
-31.80
-28.07
-22.71
-16.47
-10.73
-6.85
-5.51
-6.33
-7.97
-8.71
-7.15
-2.85
3.49
10.31
15.82
18.79
18.92
16.87
13.81
10.83
8.51
6.77
5.18
3.31
1.09
-1.04
-2.31
-1.87
0.86
5.95
12.86
20.58
27.80
33.18
35.70
34.80
30.54
23.46
14.43
4.44
-5.57
-14.67
-22.09
-27.28
-30.11
-30.96
-30.64
-30.20
-30.58
-32.42
-35.94
-40.94
-46.87
-52.74
-57.19
-58.67
-55.84
-48.11
-36.02
-21.28
-6.29
6.61
15.78
20.60
21.36
18.82
13.97
7.91
1.92
-2.55
-4.21
-2.40
2.51
9.04
15.14
18.93
19.43
16.80
12.16
6.88
2.04
-1.92
-5.02
-7.44
-9.27
-10.53
-11.26
-11.69
-12.22
-13.23
-14.81
-16.66
-18.17
-18.69
-17.71
-15.04
-10.71
-4.97
1.78
9.05
16.24
22.82
28.48
33.29
37.60
41.93
46.59
51.54
56.39
60.69
64.28
67.44
70.70
74.53
78.91
83.31
86.99
89.50
90.88
91.51
91.32
89.47
84.48
75.14
61.33
44.14
25.15
5.27
-15.79
-39.00
-64.59
-90.92
-114.37
-130.75
-137.30
-134.10
-123.99
-111.12
-99.07
-89.61
-82.75
-77.60
-73.31
-69.47
-65.92
-62.45
-58.57
-53.52
-46.52
-37.04
-24.88
-10.18
6.47
24.14
41.49
57.00
69.19
76.89
79.40
76.73
69.51
59.05
47.02
35.18
24.94
17.06
11.52
7.63
4.40
0.84
-3.83
-10.06
-17.94
-27.12
-36.73
-45.51
-52.12
-55.63
-55.88
-53.60
-50.07
-46.68
-44.45
-43.84
-44.79
-47.02
-50.10
-53.54
-56.73
-59.04
-59.97
-59.36
-57.49
-55.02
-52.78
-51.42
-51.29
-52.32
-54.21
-56.62
-59.37
-62.42
-65.80
-69.39
-72.83
-75.49
-76.59
-75.57
-72.32
-67.30
-61.47
-55.96
-51.68
-49.01
-47.71
-47.15
-46.42
-44.70
-41.40
-36.25
-29.39
-21.21
-12.24
-2.90
6.56
16.04
25.50
34.87
43.96
52.59
60.54
67.63
73.53
77.77
79.85
79.51
77.11
73.55
69.96
67.00
64.35
60.85
55.14
46.55
35.69
24.28
14.47
7.86
4.90
4.95
6.80
9.33
11.91
14.37
16.74
18.99
20.95
22.35
22.99
22.73
21.38
18.70
14.32
7.95
-0.43
-10.40
-21.05
-31.13
-39.44
-45.14
-47.98
-48.34
-46.89
-44.13
-40.01
-33.96
-25.23
-13.50
0.66
15.89
30.33
42.37
51.14
56.70
59.80
61.32
61.91
61.86
61.23
60.11
58.83
58.01
58.37
60.37
63.87
67.82
70.48
69.96
65.03
55.79
43.75
31.36
21.12
14.76
13.05
16.01
23.25
34.14
47.49
61.18
72.29
77.86
76.04
67.03
53.11
37.71
23.92
13.25
5.34
-1.44
-8.77
-17.42
-26.90
-35.97
-43.35
-48.47
-51.58
-53.48
-55.00
-56.55
-58.07
-59.21
-59.75
-59.71
-59.29
-58.58
-57.29
-54.81
-50.47
-43.94
-35.51
-26.08
-16.79
-8.62
-2.09
2.79
6.34
8.98
11.14
13.27
15.92
19.77
25.40
33.00
42.11
51.62
59.98
65.64
67.47
65.03
58.60
49.08
37.91
26.83
17.62
11.73
9.89
11.90
16.71
22.78
28.53
32.84
35.12
35.39
34.01
31.45
28.15
24.47
20.68
16.98
13.61
10.74
8.51
6.96
6.00
5.48
5.38
5.88
7.34
9.89
13.07
15.55
15.47
11.09
1.57
-12.53
-29.54
-47.40
-64.58
-80.55
-95.53
-109.83
-123.21
-134.65
-142.71
-146.16
-144.45
-137.95
-127.59
-114.58
-99.90
-84.31
-68.25
-51.87
-35.03
-17.32
1.62
21.76
42.28
61.59
77.85
89.60
96.50
99.49
100.20
100.00
99.08
96.34
90.23
79.97
66.50
52.26
40.07
31.70
27.08
24.64
22.53
20.03
18.06
18.60
23.37
32.57
44.47
56.13
64.65
68.33
66.98
61.53
53.23
43.01
31.13
17.54
2.26
-14.58
-32.95
-53.41
-76.87
-103.86
-133.33
-162.03
-185.00
-197.15
-195.33
-179.52
-152.74
-119.60
-84.59
-50.86
-20.11
6.67
28.55
44.47
53.65
56.17
53.36
47.38
40.47
34.34
29.61
25.98
22.62
18.75
14.07
9.00
4.58
2.08
2.50
6.21
12.85
21.51
31.27
41.60
52.50
64.20
76.61
88.78
98.97
105.17
106.07
101.87
94.48
86.70
80.95
78.12
77.21
75.82
71.15
60.95
44.11
20.68
-8.30
-40.87
-74.11
-104.23
-127.18
-139.70
-140.45
-130.58
-113.35
-93.03
-73.41
-56.77
-43.70
-33.55
-25.26
-17.82
-10.50
-2.73
6.24
17.30
31.05
47.24
64.37
79.95
91.36
97.21
97.95
95.62
92.57
89.89
86.61
80.11
67.50
47.27
20.15
-10.96
-41.97
-68.76
-88.11
-98.26
-99.01
-91.61
-78.29
-61.56
-43.56
-25.74
-9.27
4.46
13.42
15.27
8.33
-7.47
-30.16
-56.23
-81.69
-103.19
-118.68
-127.50
-130.25
-128.46
-124.36
-120.19
-117.32
-115.41
-112.30
-104.54
-88.66
-62.44
-25.96
17.82
63.57
104.54
134.12
147.49
143.18
123.71
94.83
63.50
35.15
12.56
-4.19
-16.62
-26.50
-34.98
-42.53
-49.62
-57.36
-68.25
-84.33
-106.01
-131.53
-157.59
-180.22
-195.69
-201.41
-196.44
-182.89
-163.96
-142.81
-121.88
-102.79
-86.26
-72.20
-60.04
-48.95
-39.69
-32.39
-26.07
-19.22
-11.36
-3.34
3.16
6.92
17.76
40.55
73.02
107.33
136.20
156.27
168.04
174.17
177.23
177.81
171.74
153.97
122.47
81.48
37.70
0.01
-23.94
-30.55
-20.75
-0.53
22.72
42.75
55.34
57.82
49.63
32.51
8.37
-16.94
-37.37
-48.61
-49.78
-43.47
-34.32
-26.32
-21.59
-20.30
-21.41
-24.42
-29.05
-34.28
-37.85
-36.95
-29.30
-14.78
4.20
23.79
39.91
50.09
54.39
55.03
55.03
56.86
61.39
67.81
74.50
79.66
82.09
81.47
78.13
72.62
65.34
56.45
46.07
34.49
22.16
9.50
-3.17
-15.74
-28.23
-40.56
-52.53
-63.66
-73.33
-80.88
-85.79
-87.77
-86.71
-82.80
-76.61
-69.11
-61.62
-55.41
-51.30
-49.23
-48.14
-46.29
-41.78
-33.37
-20.91
-5.49
10.96
26.42
39.49
49.75
57.69
64.17
69.90
75.00
79.09
81.57
82.15
81.21
79.78
79.24
80.78
85.04
91.98
100.96
111.02
120.95
129.30
134.53
135.28
131.11
122.83
112.46
102.24
93.43
85.48
76.30
63.43
45.69
24.04
1.11
-20.30
-38.77
-54.84
-70.16
-86.07
-102.52
-118.23
-131.80
-142.64
-151.03
-157.23
-160.58
-159.27
-151.11
-134.91
-111.55
-83.89
-55.86
-31.17
-12.21
0.34
7.28
10.29
11.56
13.57
18.75
29.01
45.26
66.64
89.98
110.12
121.09
118.29
100.93
73.53
44.77
24.13
17.46
24.00
36.71
45.80
43.91
29.84
8.99
-9.74
-18.65
-14.90
-1.33
16.06
31.85
43.75
52.46
59.44
64.33
64.00
54.22
32.73
1.70
-32.32
-61.06
-78.37
-83.09
-79.14
-73.03
-70.32
-73.35
-80.85
-89.25
-94.68
-94.47
-87.96
-76.26
-61.65
-46.56
-32.99
-22.05
-13.77
-7.25
-1.05
6.23
15.44
26.67
39.53
53.01
65.51
75.24
80.71
80.96
75.51
64.33
47.71
27.42
5.68
-15.19
-33.07
-46.05
-52.80
-53.26
-48.10
-38.50
-23.23
-1.16
27.32
59.62
91.98
120.86
143.84
160.97
173.78
187.56
205.41
225.78
243.27
252.27
250.32
238.50
221.44
204.07
194.26
196.28
209.05
227.55
246.59
263.02
274.87
281.63
255.08
182.07
72.39
-46.00
-146.60
-216.62
-252.70
-266.75
-268.68
-265.82
-258.36
-245.16
-227.44
-208.20
-190.54
-176.39
-166.97
-161.44
-158.69
-154.11
-144.27
-128.93
-110.94
-94.07
-80.86
-72.62
-68.35
-66.69
-64.20
-58.50
-49.44
-38.88
-29.15
-21.79
-17.46
-15.48
-15.03
-14.44
-12.70
-9.98
-7.33
-5.82
-5.91
-7.52
-9.92
-12.50
-14.57
-15.80
-16.35
-16.65
-17.12
-18.08
-19.74
-22.14
-25.29
-29.03
-32.92
-36.30
-38.55
-39.39
-39.06
-38.33
-38.26
-39.79
-43.61
-50.04
-59.13
-70.51
-83.12
-94.96
-103.28
-105.36
-99.56
-86.16
-67.41
-46.55
-26.44
-8.50
7.29
21.55
34.41
45.10
52.43
55.79
55.90
54.67
54.12
55.26
57.52
59.14
58.25
53.92
46.70
38.21
30.38
24.62
21.41
20.40
20.81
21.77
22.69
23.26
23.45
23.36
23.05
22.50
21.58
20.07
17.83
14.91
11.58
8.27
5.38
3.09
1.26
-0.46
-2.47
-4.94
-7.69
-10.25
-12.06
-12.79
-12.51
-11.64
-10.74
-10.22
-10.09
-10.01
-9.48
-8.12
-5.88
-3.03
-0.03
2.71
5.02
6.96
8.76
10.57
12.44
14.24
15.81
16.97
17.68
17.98
17.96
17.70
17.21
16.45
15.37
14.01
12.51
11.06
9.89
9.09
8.61
8.29
7.90
7.32
6.55
5.74
5.03
4.58
4.41
4.51
4.81
5.26
5.83
6.50
7.21
7.92
8.52
8.95
9.15
9.17
9.12
9.19
9.59
10.48
11.91
13.82
16.03
18.31
20.34
21.80
22.39
21.88
20.14
17.21
13.30
8.74
3.95
-0.67
-4.79
-8.21
-10.92
-13.03
-14.70
-16.02
-16.93
-17.23
-16.70
-15.27
-13.12
-10.64
-8.28
-6.30
-4.77
-3.52
-2.45
-1.62
-1.24
-1.53
-2.43
-3.53
-4.20
-3.92
-2.54
-0.42
1.78
3.39
4.05
3.87
3.30
2.86
2.94
3.64
4.78
6.08
7.25
8.16
8.82
9.38
10.04
10.95
12.14
13.43
14.51
14.99
14.61
13.30
11.31
9.09
7.23
6.24
6.37
7.59
9.55
11.69
13.30
13.73
12.45
9.24
4.26
-1.87
-8.25
-13.99
-18.50
-21.77
-24.30
-26.87
-30.08
-33.96
-37.93
-41.05
-42.43
-41.71
-39.07
-35.12
-30.63
-26.17
-22.02
-18.24
-14.71
-11.25
-7.67
-3.80
0.40
4.77
8.94
12.48
14.96
16.15
16.04
14.75
12.47
9.37
5.58
1.29
-3.32
-8.00
-12.48
-16.45
-19.60
-21.67
-22.48
-21.95
-20.13
-17.23
-13.58
-9.62
-5.85
-2.72
-0.53
0.74
1.39
1.89
2.65
3.64
4.38
4.00
1.76
-2.64
-8.70
-15.27
-20.96
-24.58
-25.53
-23.82
-19.90
-14.45
-8.15
-1.68
4.42
9.78
14.35
18.45
22.65
27.47
33.17
39.51
45.85
51.32
55.08
56.49
55.22
51.25
44.80
36.38
26.74
16.77
7.35
-0.88
-7.65
-13.08
-17.50
-21.28
-24.68
-27.81
-30.68
-33.35
-35.92
-38.44
-40.77
-42.48
-42.93
-41.59
-38.46
-34.24
-30.19
-27.64
-27.21
-28.41
-29.66
-28.87
-24.45
-16.05
-4.87
6.87
16.81
23.49
26.76
27.63
27.62
28.02
29.44
31.74
34.48
37.16
39.54
41.53
43.00
43.58
42.69
39.71
34.35
26.88
18.17
9.38
1.60
-4.62
-9.39
-13.39
-17.43
-22.05
-27.29
-32.70
-37.67
-41.69
-44.53
-46.26
-47.04
-46.98
-46.11
-44.47
-42.19
-39.54
-36.81
-34.23
-31.85
-29.60
-27.43
-25.34
-23.50
-22.05
-21.03
-20.24
-19.35
-18.01
-16.02
-13.39
-10.31
-7.02
-3.70
-0.45
2.68
5.65
8.35
10.69
12.60
14.07
15.14
15.84
16.16
16.06
15.53
14.60
13.41
12.15
11.02
10.16
9.62
9.42
9.52
9.89
10.46
11.13
11.73
12.08
11.99
11.35
10.19
8.63
6.86
5.09
3.46
2.00
0.68
-0.63
-2.04
-3.60
-5.28
-6.97
-8.56
-9.91
-10.98
-11.73
-12.19
-12.37
-12.26
-11.76
-10.81
-9.33
-7.35
-5.03
-2.64
-0.48
1.21
2.31
2.88
3.07
3.07
3.01
2.86
2.47
1.65
0.28
-1.63
-3.94
-6.39
-8.70
-10.73
-12.51
-14.32
-16.54
-19.41
-22.99
-27.00
-30.96
-34.29
-36.52
-37.40
-37.08
-35.92
-34.35
-32.80
-31.45
-30.03
-27.59
-22.58
-13.22
1.59
21.70
45.21
68.64
87.92
99.74
102.61
97.36
86.62
73.41
60.25
48.46
37.94
27.91
17.57
6.69
-4.38
-14.89
-24.37
-32.46
-38.86
-43.41
-46.10
-47.33
-48.48
-51.94
-57.49
-65.13
-73.95
-81.20
-83.15
-76.76
-61.34
-39.21
-14.56
8.84
29.43
47.57
65.19
83.50
101.70
117.39
127.47
129.78
124.51
114.49
102.60
90.75
79.19
67.34
53.31
36.45
16.91
-4.46
-25.97
-47.24
-68.49
-89.64
-109.25
-120.53
-117.60
-99.41
-75.72
-50.31
-24.74
1.20
25.55
45.82
59.84
66.02
64.40
57.11
48.40
41.04
35.72
31.18
25.69
18.06
7.90
-3.97
-15.62
-24.18
-28.30
-28.12
-24.92
-20.24
-15.62
-12.68
-12.67
-15.99
-21.78
-29.02
-36.79
-44.30
-50.75
-55.40
-57.50
-56.11
-49.99
-37.91
-19.88
2.30
25.22
44.83
57.73
62.24
58.93
50.13
38.92
27.81
18.04
9.79
2.82
-2.95
-7.21
-9.63
-10.23
-9.66
-8.96
-9.09
-10.46
-12.86
-15.64
-18.09
-19.68
-20.25
-19.88
-18.78
-17.15
-15.03
-12.27
-8.62
-3.79
2.34
9.53
17.19
24.47
30.58
34.97
37.62
38.92
39.52
40.04
40.80
41.68
42.18
41.61
39.38
35.26
29.44
22.44
14.84
7.11
-0.50
-7.84
-14.66
-20.54
-24.86
-27.22
-27.57
-26.31
-24.03
-21.13
-17.46
-12.38
-5.23
4.10
14.68
24.79
32.63
36.96
37.55
35.10
30.68
25.32
19.88
15.14
12.00
11.32
13.45
17.76
22.62
25.90
25.86
21.96
14.82
5.90
-3.28
-11.66
-18.70
-24.05
-27.24
-27.49
-23.84
-16.01
-4.50
9.33
23.43
35.42
43.23
45.44
42.09
34.70
24.98
14.54
4.43
-4.95
-13.63
-21.28
-27.64
-32.12
-34.33
-35.79
-38.77
-45.19
-55.35
-67.91
-80.17
-90.46
-97.97
-102.78
-106.73
-111.25
-116.57
-121.89
-126.56
-130.40
-135.19
-142.44
-144.29
-134.11
-109.54
-74.47
-35.65
-1.96
27.75
55.12
81.23
106.58
128.68
144.34
151.46
149.89
141.25
128.53
113.79
98.75
84.75
71.47
58.26
44.71
31.04
17.96
6.66
-2.67
-10.09
-15.87
-21.26
-27.35
-34.39
-41.42
-46.48
-47.21
-42.43
-32.17
-17.50
-0.53
16.65
32.56
46.47
58.19
67.68
74.43
77.83
77.47
73.26
65.71
55.92
45.31
35.18
26.49
19.54
14.21
10.18
7.03
4.31
1.54
-1.85
-6.37
-12.38
-19.82
-28.10
-36.23
-43.10
-47.78
-49.73
-48.93
-45.78
-41.03
-35.59
-30.37
-26.13
-23.30
-21.93
-21.66
-21.88
-21.92
-21.23
-19.53
-16.87
-13.45
-9.63
-5.72
-1.97
1.43
4.37
6.81
8.73
10.18
11.22
11.91
12.34
12.60
12.75
12.85
12.92
12.94
12.86
12.65
12.32
11.90
11.46
11.01
10.52
9.93
9.18
8.30
7.33
6.38
5.55
4.88
4.31
3.72
2.94
1.83
0.34
-1.51
-3.56
-5.61
-7.42
-8.79
-9.58
-9.73
-9.33
-8.47
-7.36
-6.16
-5.00
-4.00
-3.17
-2.47
-1.87
-1.32
-0.83
-0.39
-0.01
0.32
0.62
0.90
1.19
1.51
1.84
2.15
2.36
2.41
2.21
1.66
0.74
-0.45
-1.75
-2.98
-4.08
-5.04
-5.95
-7.02
-8.62
-11.04
-14.38
-18.63
-23.69
-29.37
-35.16
-40.41
-44.48
-47.20
-48.54
-48.62
-47.57
-45.47
-42.11
-36.80
-28.74
-17.67
-4.62
8.96
21.46
31.74
39.28
44.22
47.49
50.04
52.52
54.75
56.93
59.80
64.32
70.89
77.15
79.91
76.64
69.58
59.32
46.30
30.49
13.27
-3.60
-18.42
-29.58
-35.99
-37.52
-35.34
-30.78
-25.08
-19.37
-14.86
-12.61
-12.99
-15.78
-20.46
-26.62
-33.38
-39.76
-44.94
-48.62
-50.93
-52.06
-52.13
-51.53
-50.76
-49.97
-49.05
-47.96
-46.89
-46.14
-45.80
-43.46
-37.56
-28.16
-16.89
-5.89
3.28
10.08
14.78
18.37
21.63
24.68
27.49
30.25
33.66
37.93
43.51
50.58
58.88
67.73
76.08
83.03
88.01
90.82
91.44
90.00
86.68
81.82
75.89
69.28
62.32
55.35
48.71
42.74
37.83
34.15
31.53
29.43
27.13
24.16
20.61
17.08
14.44
13.38
14.08
16.18
18.99
21.77
23.99
25.50
26.46
27.15
27.63
27.47
25.61
20.83
12.37
0.51
-13.48
-28.00
-41.99
-55.28
-68.33
-81.38
-93.71
-103.71
-109.67
-110.87
-108.13
-103.41
-98.62
-94.69
-91.20
-87.06
-81.43
-74.40
-66.90
-59.95
-54.07
-48.88
-43.47
-36.88
-28.58
-18.66
-7.59
3.98
15.51
26.62
37.02
46.42
54.47
60.66
64.41
65.23
62.88
57.57
50.05
41.55
33.46
26.93
22.46
19.83
18.34
17.25
16.24
15.59
15.99
18.05
21.88
26.95
32.28
36.95
40.50
43.08
45.14
47.02
48.62
49.50
49.19
47.52
44.79
41.45
37.88
34.04
29.55
23.97
17.16
9.46
1.64
-5.46
-11.03
-14.48
-15.57
-14.62
-12.38
-9.90
-8.14
-7.71
-8.82
-11.16
-14.06
-16.84
-19.04
-20.53
-21.45
-21.97
-22.25
-22.64
-23.17
-23.45
-22.81
-20.76
-17.28
-12.96
-8.76
-5.62
-4.86
-6.69
-10.02
-13.14
-14.99
-15.62
-16.27
-18.39
-23.01
-31.93
-45.16
-60.63
-75.37
-87.49
-96.73
-104.49
-112.16
-120.47
-131.84
-146.53
-161.99
-174.45
-181.55
-182.81
-179.83
-174.38
-168.09
-165.87
-170.80
-181.99
-195.31
-205.99
-209.54
-203.35
-185.93
-137.17
-55.76
38.72
119.09
169.23
185.79
180.42
162.56
138.85
113.45
88.06
64.69
47.22
39.65
43.24
56.15
73.62
91.42
106.87
116.46
119.11
116.90
113.35
110.90
110.51
111.43
113.37
116.67
120.03
121.98
121.59
118.15
110.55
98.14
81.10
61.64
43.01
27.24
15.10
6.47
0.64
-3.54
-7.22
-11.61
-17.20
-23.98
-31.87
-40.17
-47.30
-51.33
-50.98
-46.42
-39.32
-31.68
-24.78
-18.69
-12.40
-4.52
5.68
17.74
30.25
39.74
43.19
40.57
34.39
27.52
21.71
17.47
14.72
13.33
13.65
16.54
22.59
31.33
41.11
49.61
53.70
51.12
41.13
24.57
3.45
-20.04
-44.35
-68.53
-91.45
-111.23
-125.33
-131.62
-129.65
-121.12
-109.27
-97.45
-87.51
-79.16
-70.52
-59.63
-45.86
-30.49
-15.96
-4.73
1.89
4.11
3.50
2.22
2.30
5.06
10.83
19.01
28.30
36.94
43.10
45.22
42.47
35.02
24.10
11.78
0.61
-6.89
-8.79
-4.11
6.78
22.23
39.51
55.56
67.81
74.96
77.24
76.08
73.40
70.74
68.73
67.02
64.76
61.09
55.52
47.87
38.16
26.49
13.04
-1.63
-16.49
-30.13
-41.18
-48.88
-53.37
-55.60
-56.79
-57.66
-57.80
-55.71
-49.26
-36.83
-18.26
4.65
28.47
49.24
63.86
71.22
72.36
69.74
66.10
63.28
61.62
60.08
56.95
50.71
40.73
27.32
11.48
-5.49
-22.29
-37.70
-50.53
-59.72
-64.48
-64.76
-61.44
-56.41
-51.95
-49.78
-50.18
-51.81
-52.26
-49.23
-41.67
-30.27
-17.20
-5.18
3.76
9.06
11.64
13.35
16.29
22.29
32.56
47.28
65.42
85.00
103.45
118.02
126.32
127.09
120.55
108.33
92.52
74.92
56.91
39.38
22.86
7.51
-6.30
-18.06
-27.30
-34.22
-39.76
-44.66
-49.09
-53.09
-57.56
-64.11
-75.34
-91.23
-107.82
-120.65
-126.58
-123.96
-111.47
-91.14
-67.03
-43.40
-23.12
-7.75
1.92
5.97
5.39
2.17
-1.25
-2.22
0.96
8.27
17.63
25.71
29.90
29.51
25.82
21.05
17.80
18.31
24.13
35.53
51.23
68.77
85.21
97.72
104.17
103.91
97.69
87.19
74.28
60.56
47.74
37.71
31.61
28.88
27.29
23.61
15.32
1.93
-14.80
-30.85
-41.61
-44.48
-40.02
-31.09
-21.19
-12.61
-6.53
-4.17
-6.12
-11.89
-20.26
-29.34
-36.79
-40.97
-41.53
-40.50
-42.49
-50.88
-65.44
-82.57
-96.72
-102.10
-94.81
-73.36
-35.44
11.09
51.09
72.76
74.15
60.81
42.45
23.07
4.75
-11.53
-26.20
-39.15
-47.92
-51.32
-50.22
-47.02
-44.74
-44.99
-48.00
-53.32
-59.05
-62.47
-62.06
-58.38
-53.78
-51.41
-53.22
-59.72
-70.17
-82.36
-93.29
-100.77
-104.38
-105.69
-107.48
-111.83
-119.20
-127.73
-133.81
-133.31
-123.21
-102.58
-72.53
-35.57
5.62
48.57
91.52
132.67
170.57
204.67
235.26
262.32
284.38
298.72
302.16
293.64
274.09
246.46
215.20
184.79
158.04
135.69
117.96
105.18
99.04
99.43
103.30
105.17
98.87
79.29
44.45
-2.30
-59.94
-116.41
-155.63
-168.70
-158.93
-136.05
-109.17
-83.31
-58.49
-32.20
-2.61
28.87
59.08
85.49
108.39
130.78
146.53
152.15
145.09
126.46
99.67
69.10
38.36
10.46
-16.51
-43.10
-67.19
-86.11
-97.42
-101.73
-99.61
-96.13
-98.94
-114.83
-146.64
-191.34
-241.25
-285.37
-312.34
-313.29
-284.61
-229.81
-157.26
-78.06
-3.79
55.35
93.00
106.94
98.91
79.04
53.79
27.13
2.84
-16.13
-28.39
-34.16
-34.56
-31.42
-27.60
-27.93
-35.16
-48.55
-64.47
-77.88
-84.35
-81.28
-69.05
-45.65
-16.82
8.37
24.06
30.32
33.58
38.66
47.59
59.35
71.24
78.96
80.10
74.96
65.65
55.03
45.41
38.51
34.89
33.92
33.29
31.31
27.56
22.31
15.97
8.59
0.65
-6.76
-11.93
-13.54
-10.46
-2.31
9.96
24.18
37.58
48.06
54.70
57.68
57.54
55.03
50.83
45.25
38.35
30.00
20.42
10.18
0.12
-9.03
-16.71
-22.66
-26.91
-29.55
-30.56
-29.58
-26.12
-19.78
-10.65
0.62
12.82
24.49
34.47
42.17
47.87
52.49
57.15
62.55
68.64
74.56
78.78
79.52
75.11
64.51
47.72
26.10
2.38
-19.86
-37.02
-46.61
-48.17
-43.65
-36.73
-31.46
-30.92
-36.17
-46.36
-59.59
-73.96
-87.98
-100.10
-107.97
-108.17
-97.32
-73.73
-39.06
1.47
40.57
71.42
89.90
95.36
89.88
76.46
57.81
35.90
12.54
-10.16
-29.78
-44.28
-52.86
-56.30
-56.64
-56.14
-56.39
-57.67
-59.01
-58.80
-55.56
-48.59
-38.35
-26.41
-15.00
-6.31
-1.93
-2.34
-6.84
-13.77
-20.88
-26.02
-27.82
-25.87
-20.53
-12.58
-2.77
8.31
20.42
33.73
48.23
63.08
76.58
86.57
90.87
87.72
76.06
55.96
29.37
-0.51
-30.12
-55.75
-74.14
-83.16
-82.46
-73.85
-60.81
-46.51
-33.25
-21.88
-10.60
4.60
28.36
64.16
109.78
154.24
182.72
185.21
161.07
118.01
67.38
20.37
-14.27
-32.11
-34.72
-24.83
-6.40
14.75
33.02
43.33
42.10
28.94
6.38
-21.12
-44.34
-53.75
-51.43
-41.61
-26.71
-11.30
0.65
6.88
7.03
2.71
-4.36
-13.13
-21.93
-29.53
-35.63
-40.21
-43.65
-46.50
-48.74
-50.18
-50.45
-48.23
-42.80
-34.87
-26.03
-18.15
-12.84
-10.69
-11.78
-15.92
-21.99
-28.38
-32.89
-32.35
-23.63
-5.20
21.51
51.63
78.27
95.49
100.13
92.73
77.01
57.89
39.60
24.57
13.60
6.55
3.60
4.88
10.15
18.33
27.38
34.86
38.83
38.65
34.99
30.15
25.99
23.36
21.62
19.00
13.67
4.79
-6.81
-19.47
-29.95
-36.68
-39.83
-41.18
-43.36
-48.59
-57.66
-69.63
-83.04
-94.16
-101.16
-103.53
-102.19
-99.13
-96.90
-97.96
-103.73
-114.93
-127.50
-137.02
-138.03
-125.92
-98.71
-58.35
-10.67
42.49
82.45
106.16
112.93
106.01
90.84
72.54
53.88
34.73
13.11
-13.73
-43.86
-74.27
-100.42
-118.28
-125.99
-124.15
-114.57
-98.78
-77.99
-50.83
-17.95
17.97
52.31
79.96
97.23
103.31
100.35
91.56
81.20
71.28
62.17
53.46
45.01
37.57
32.44
30.83
32.79
37.81
44.03
49.40
52.26
51.87
48.39
42.74
36.22
30.11
25.64
23.36
23.28
24.96
27.76
30.90
33.53
34.65
33.31
28.91
21.60
12.44
3.07
-4.90
-10.52
-13.70
-15.06
-15.43
-15.45
-15.36
-15.09
-14.53
-13.60
-12.42
-11.21
-10.24
-9.76
-9.84
-10.33
-10.86
-11.06
-10.65
-9.53
-7.80
-5.71
-3.55
-1.75
-0.82
-1.30
-3.56
-7.50
-12.46
-17.37
-21.17
-23.27
-23.71
-23.02
-21.74
-20.04
-17.62
-13.89
-8.37
-0.94
8.08
18.23
29.08
40.53
52.56
64.98
77.19
88.12
96.53
101.45
102.61
100.61
96.76
92.57
89.27
87.40
86.74
86.49
85.67
83.55
80.01
75.57
71.17
67.88
66.49
67.24
69.65
72.41
73.43
70.19
60.54
43.67
20.72
-5.34
-30.69
-52.12
-68.10
-78.99
-86.18
-90.81
-92.94
-91.74
-86.41
-77.30
-66.19
-55.78
-48.49
-45.47
-46.31
-49.50
-53.39
-56.86
-59.71
-62.41
-65.58
-69.44
-73.49
-76.55
-77.26
-74.63
-68.58
-60.07
-50.73
