1638371419.00
64.000000
-0.00
-0.00
-0.00
-0.00
-0.00
-0.00
-0.00
-0.00
-0.00
-0.00
0.00
0.01
0.01
-0.00
-0.03
-0.05
-0.05
0.00
0.13
0.36
0.66
1.01
1.37
1.72
2.06
2.40
2.79
3.24
3.80
4.42
5.06
5.66
6.20
6.68
7.15
7.69
8.33
9.18
10.15
11.14
12.04
12.79
13.46
14.21
15.24
16.72
18.85
21.44
24.22
26.90
29.32
31.54
33.87
36.76
40.51
45.51
51.40
57.66
63.71
69.20
74.21
79.22
84.92
91.83
100.49
110.40
120.76
130.69
139.64
147.68
155.42
164.18
172.65
183.09
196.09
211.76
228.90
244.65
254.72
254.46
240.49
211.90
171.05
121.77
68.40
14.16
-39.31
-91.68
-143.08
-193.24
-241.37
-286.03
-326.34
-361.59
-391.25
-414.39
-429.69
-435.63
-430.82
-414.69
-387.61
-351.28
-308.22
-262.07
-215.82
-171.56
-130.41
-92.74
-58.57
-27.73
-0.23
23.86
44.48
61.88
76.45
88.75
99.34
108.59
116.72
123.70
129.38
133.58
136.25
137.40
137.03
135.61
133.36
130.41
126.82
122.57
117.67
112.23
106.41
100.38
94.28
88.15
82.01
75.84
69.64
63.37
57.03
50.59
44.06
37.44
30.73
23.98
17.25
10.67
4.36
-1.46
-6.65
-11.04
-14.54
-17.12
-18.79
-19.62
-19.71
-19.22
-18.30
-17.14
-15.90
-14.70
-13.66
-12.85
-12.32
-12.03
-11.92
-11.93
-11.95
-11.94
-11.82
-11.59
-11.25
-10.83
-10.38
-9.92
-9.52
-9.17
-8.88
-8.60
-8.31
-7.98
-7.57
-7.08
-6.50
-5.87
-5.24
-4.69
-4.28
-4.04
-4.03
-4.26
-4.74
-5.43
-6.33
-7.38
-8.54
-9.79
-11.06
-12.36
-13.63
-14.90
-16.09
-17.16
-18.03
-18.60
-18.79
-18.55
-17.91
-16.92
-15.66
-14.23
-12.67
-11.03
-9.31
-7.55
-5.79
-4.12
-2.64
-1.44
-0.51
0.25
1.04
2.08
3.55
5.49
7.73
9.94
11.79
12.97
13.39
13.11
12.37
11.27
9.68
7.21
3.22
-2.88
-11.46
-22.34
-34.93
-48.37
-61.91
-75.30
-88.80
-103.13
-119.00
-136.67
-155.60
-174.62
-192.32
-207.54
-220.11
-230.62
-240.44
-250.97
-263.42
-278.39
-295.54
-313.80
-331.04
-344.69
-351.86
-350.45
-339.69
-320.36
-294.66
-265.17
-234.13
-202.28
-169.31
-134.25
-96.66
-57.68
-20.07
12.35
36.69
52.17
61.07
67.56
76.16
89.58
107.59
127.77
146.62
161.78
172.55
180.09
185.96
191.07
195.27
197.24
196.00
191.00
183.12
173.82
164.70
156.82
150.23
144.24
137.56
129.57
120.43
111.45
104.33
100.00
98.06
96.19
91.53
81.84
67.45
50.80
35.79
25.86
22.33
24.36
29.55
35.61
40.99
45.20
48.17
49.72
49.89
48.67
46.80
44.98
43.65
42.27
39.52
34.20
25.97
16.17
6.84
0.09
-3.02
-2.59
0.43
4.58
8.95
12.63
15.10
15.65
14.02
10.25
5.05
-0.09
-3.92
-5.57
-5.43
-4.61
-4.64
-6.50
-9.98
-14.11
-17.40
-19.03
-18.90
-17.84
-16.77
-16.04
-15.37
-13.91
-11.39
-7.83
-3.80
0.46
5.19
11.01
18.33
26.23
33.11
36.84
36.37
32.18
26.33
21.31
18.59
18.46
19.82
21.47
22.50
22.79
22.77
22.95
24.07
26.69
31.27
37.39
43.60
47.65
47.20
41.23
30.52
17.76
5.95
-2.46
-6.63
-7.07
-4.80
-0.90
3.70
7.40
7.88
2.48
-10.34
-29.69
-51.71
-70.32
-79.82
-77.09
-63.21
-42.76
-21.64
-4.84
5.75
10.99
13.62
15.93
19.05
22.68
25.93
28.35
29.79
30.27
29.07
25.30
18.45
9.67
1.77
-1.89
1.11
10.29
22.52
32.82
36.36
30.36
15.06
-6.15
-27.66
-43.12
-47.75
-39.96
-22.38
-1.33
15.73
22.53
16.75
0.29
-21.21
-41.01
-53.33
-54.87
-45.48
-27.56
-5.80
14.39
27.86
31.40
25.01
11.85
-2.84
-13.96
-18.00
-14.55
-5.56
5.82
16.53
24.93
30.59
33.84
35.14
34.84
33.12
30.49
27.93
26.29
26.35
28.02
30.83
33.82
36.30
37.96
38.84
39.36
39.72
40.19
40.62
40.64
39.61
36.64
31.39
24.08
15.60
6.78
-1.62
-9.40
-16.80
-23.88
-30.54
-36.17
-40.27
-42.75
-44.20
-45.50
-47.19
-48.88
-48.64
-44.09
-33.42
-17.27
1.25
17.31
26.30
26.11
17.88
5.70
-5.93
-13.83
-17.38
-17.99
-17.45
-16.90
-16.11
-14.37
-11.41
-8.26
-6.89
-9.19
-16.12
-26.61
-38.35
-48.12
-53.30
-52.77
-47.01
-37.82
-27.26
-17.24
-8.85
-2.63
1.31
2.94
2.41
0.42
-2.20
-4.42
-5.76
-6.06
-5.59
-4.63
-3.05
-0.98
1.54
4.04
6.13
7.70
9.19
11.48
15.18
20.59
27.10
34.05
40.97
48.00
55.50
62.82
68.26
69.28
64.42
54.12
41.30
29.83
22.35
18.91
16.78
12.65
4.33
-7.36
-19.39
-28.11
-31.40
-29.70
-24.95
-19.64
-15.14
-11.74
-9.07
-7.18
-6.62
-7.94
-11.44
-16.36
-21.52
-25.56
-28.02
-29.27
-30.33
-32.37
-35.86
-40.37
-44.39
-46.17
-44.45
-39.18
-31.94
-25.13
-21.08
-20.85
-24.08
-29.24
-34.83
-40.17
-45.42
-51.43
-58.74
-67.61
-78.05
-90.24
-104.41
-120.57
-137.97
-154.81
-169.26
-179.96
-186.80
-190.70
-192.83
-193.45
-191.35
-183.93
-168.29
-142.96
-108.94
-70.04
-32.06
-0.78
19.83
29.37
31.28
33.03
41.94
62.93
96.52
138.46
181.95
220.47
250.12
270.33
282.74
289.51
292.46
292.40
289.21
282.44
271.48
256.35
238.54
220.48
204.60
192.26
182.96
174.16
162.23
144.56
118.32
82.98
39.93
-8.54
-59.04
-107.05
-146.80
-170.27
-173.90
-161.70
-144.77
-137.71
-151.47
-187.06
-233.82
-274.10
-291.83
-280.59
-246.11
-201.88
-161.55
-132.55
-113.86
-99.17
-82.12
-61.06
-38.08
-17.56
-2.30
8.43
18.21
31.79
51.87
78.09
107.10
133.96
154.41
166.98
172.89
174.97
175.76
175.78
173.16
164.24
145.48
115.51
75.77
29.89
-17.79
-63.30
-102.89
-132.28
-146.12
-139.61
-110.98
-64.13
-9.20
39.94
70.29
73.46
49.50
7.39
-38.88
-75.03
-91.82
-87.15
-65.40
-34.67
-3.78
20.53
34.58
35.57
22.93
-1.59
-34.37
-70.54
-104.65
-132.95
-152.83
-163.18
-164.80
-159.63
-149.96
-137.95
-124.49
-109.41
-91.90
-71.22
-47.48
-21.66
4.76
30.54
55.31
79.89
105.50
133.00
162.23
191.13
216.03
232.46
237.14
228.62
208.58
181.12
151.52
124.85
103.67
88.02
75.71
64.25
52.02
39.07
26.92
17.23
11.26
8.84
8.75
8.95
7.33
2.41
-5.97
-15.69
-23.46
-25.75
-21.17
-11.05
0.38
7.97
8.35
1.11
-10.80
-23.45
-33.04
-37.78
-37.70
-34.01
-28.34
-21.95
-16.21
-11.93
-9.89
-10.05
-11.76
-13.88
-14.37
-11.49
-3.72
8.55
22.91
35.28
41.29
38.70
28.48
14.97
3.16
-3.54
-5.35
-5.64
-8.61
-16.96
-29.90
-44.45
-56.70
-64.41
-67.16
-65.67
-60.79
-52.32
-39.66
-22.58
-2.71
16.73
31.70
39.15
38.45
30.94
19.92
8.22
-2.12
-10.84
-18.52
-25.37
-31.01
-33.96
-33.12
-28.23
-20.49
-11.86
-3.73
3.25
9.33
14.24
17.46
17.82
15.07
10.15
4.76
0.65
-2.11
-4.43
-7.77
-12.08
-15.67
-15.94
-10.91
-1.20
10.95
22.08
30.13
34.21
34.82
32.72
28.44
22.78
16.41
10.53
5.95
3.07
1.88
2.21
4.03
6.67
9.09
9.31
6.07
-0.52
-8.44
-14.33
-15.76
-12.11
-5.70
0.07
2.24
0.28
-3.81
-6.96
-6.28
-0.95
7.94
17.79
26.06
30.99
32.14
30.35
27.01
23.90
21.88
21.26
21.78
22.92
24.53
26.39
28.37
29.36
28.09
23.14
14.06
1.92
-11.08
-21.97
-28.62
-29.95
-26.85
-21.40
-16.12
-13.39
-14.45
-19.61
-27.83
-37.49
-46.53
-53.08
-55.91
-54.47
-49.14
-40.49
-29.63
-17.68
-6.12
3.62
10.97
16.14
20.44
24.62
28.85
31.63
30.65
24.07
11.77
-3.73
-18.44
-27.83
-29.38
-23.36
-13.23
-4.36
-1.08
-5.15
-14.33
-23.74
-28.04
-24.53
-14.62
-2.96
5.08
7.03
4.29
1.55
3.09
10.27
20.62
29.26
32.28
28.74
21.17
12.97
6.67
2.83
0.50
-1.41
-3.35
-4.81
-5.62
-5.76
-5.38
-4.09
-0.93
4.75
12.70
21.01
27.43
30.80
32.23
34.54
40.28
50.12
62.05
72.66
78.83
79.31
74.38
65.10
52.87
39.03
25.66
15.47
11.30
14.35
23.13
33.81
41.53
42.68
36.31
24.03
8.55
-7.81
-23.48
-37.13
-46.87
-50.70
-46.88
-35.32
-17.91
2.22
21.91
38.97
52.17
60.86
64.08
60.62
49.51
30.86
6.75
-19.37
-43.33
-61.46
-71.48
-73.13
-68.58
-62.39
-60.31
-66.81
-83.29
-107.08
-131.66
-149.43
-154.22
-143.52
-119.63
-88.91
-59.36
-38.63
-31.73
-39.43
-58.45
-82.85
-105.91
-123.09
-133.49
-139.34
-141.99
-143.10
-142.76
-139.87
-136.14
-131.58
-125.94
-118.61
-106.35
-85.26
-52.47
-7.22
46.73
101.58
148.08
178.60
190.46
186.82
174.56
160.37
148.39
138.82
129.66
119.63
109.14
100.19
94.26
90.99
87.97
82.76
74.87
66.09
59.98
58.77
62.30
67.54
70.62
68.66
61.34
50.50
38.80
28.97
22.38
19.57
20.07
22.41
24.20
22.46
15.25
2.34
-13.70
-29.26
-40.90
-47.22
-49.39
-49.81
-50.64
-52.01
-52.66
-50.46
-44.35
-34.89
-23.98
-14.52
-8.38
-6.38
-7.53
-10.14
-12.48
-13.61
-13.94
-14.76
-17.47
-22.04
-27.01
-29.92
-28.62
-22.98
-15.11
-9.00
-7.73
-12.26
-20.14
-27.01
-28.66
-23.17
-11.98
1.34
12.39
18.47
19.01
15.53
10.27
4.86
0.24
-3.51
-6.07
-7.08
-5.59
-0.97
6.48
15.92
25.69
34.06
39.59
41.75
40.70
37.21
32.51
27.13
21.63
16.09
10.82
6.13
2.35
-0.31
-1.93
-2.66
-3.03
-3.52
-4.87
-7.57
-11.52
-16.18
-20.23
-22.66
-23.32
-23.12
-23.73
-26.53
-31.85
-38.16
-43.42
-45.34
-43.00
-36.83
-28.13
-18.08
-7.30
3.88
15.53
27.01
37.62
46.33
52.25
54.93
54.54
52.32
49.85
49.06
50.63
53.83
56.18
54.35
46.08
30.71
10.24
-11.77
-31.44
-45.85
-53.99
-56.26
-54.63
-51.16
-48.18
-47.24
-48.78
-52.04
-55.40
-57.23
-56.38
-53.15
-48.49
-43.84
-39.72
-35.33
-29.38
-20.61
-9.21
3.42
15.00
24.11
30.68
36.11
42.49
50.88
60.91
70.36
76.52
77.03
71.25
60.52
47.35
34.59
24.37
17.92
15.19
15.28
17.13
19.90
23.12
25.90
27.20
25.48
19.89
11.03
1.28
-5.93
-8.91
-8.34
-7.67
-11.28
-21.96
-39.06
-58.78
-76.01
-85.78
-85.57
-75.09
-55.82
-30.61
-3.34
21.24
38.50
45.29
41.55
30.29
16.81
6.29
1.66
3.21
8.98
16.35
22.95
27.62
30.05
30.23
28.19
23.94
17.99
10.71
2.65
-5.71
-14.10
-21.91
-28.03
-31.04
-30.31
-26.08
-20.11
-14.59
-11.36
-11.55
-15.10
-21.63
-30.23
-39.62
-47.57
-51.65
-49.70
-41.04
-27.59
-12.96
-1.16
5.45
6.71
4.79
2.23
0.60
-0.01
-0.66
-2.01
-4.05
-5.96
-6.82
-6.44
-5.73
-5.98
-7.67
-10.28
-12.07
-11.44
-7.97
-2.83
1.66
3.67
2.58
-0.69
-4.31
-6.33
-5.77
-2.89
1.52
6.16
10.04
12.83
14.55
15.23
14.95
13.55
11.11
8.35
6.03
4.99
5.55
7.11
8.68
9.34
8.60
6.94
5.66
6.44
10.42
17.52
25.47
30.89
30.37
22.37
8.69
-5.94
-15.80
-16.77
-8.20
6.75
23.33
37.00
45.03
47.06
43.88
37.29
29.52
23.08
19.86
20.58
23.87
26.57
25.58
19.38
9.57
0.07
-4.45
-0.56
12.73
33.39
56.87
77.93
92.18
97.87
96.28
90.45
84.34
81.47
83.70
90.76
100.67
109.99
114.49
109.48
89.90
52.60
-1.78
-67.65
-135.82
-195.99
-240.58
-267.25
-274.69
-266.85
-250.61
-233.06
-218.68
-208.89
-202.70
-198.58
-195.08
-190.66
-184.50
-176.00
-165.11
-152.48
-139.40
-126.87
-115.04
-104.27
-91.67
-73.56
-46.27
-7.35
43.19
101.59
160.86
212.27
248.31
263.64
259.07
241.52
220.83
205.14
197.45
195.76
195.27
191.58
182.97
170.08
154.31
136.28
116.70
93.85
66.70
35.85
3.43
-27.62
-54.61
-76.14
-92.19
-103.71
-112.04
-117.84
-120.94
-120.45
-115.52
-105.76
-91.61
-74.37
-55.66
-36.96
-18.59
-0.15
19.30
40.36
63.10
87.01
111.07
134.07
154.93
172.83
187.58
199.32
208.22
214.48
218.37
220.05
219.98
219.98
220.21
220.89
222.39
225.06
229.17
234.79
241.57
248.96
256.26
262.45
266.69
268.08
265.48
257.42
243.42
223.20
197.06
165.90
130.92
93.83
56.18
19.13
-16.74
-51.29
-84.72
-117.04
-147.71
-175.87
-200.22
-219.83
-234.41
-244.67
-252.05
-258.25
-264.43
-270.77
-276.65
-280.66
-281.86
-280.07
-276.18
-272.33
-271.20
-275.68
-287.78
-307.99
-334.02
-360.76
-380.95
-387.41
-375.88
-346.63
-305.04
-259.13
-216.86
-183.00
-158.20
-139.83
-123.89
-107.09
-87.52
-65.33
-42.02
-20.40
-3.95
4.52
4.34
-1.96
-9.73
-13.76
-11.25
-2.76
8.52
18.61
24.97
26.83
24.84
20.03
13.71
7.63
4.34
6.27
14.31
27.19
41.52
53.88
61.95
65.20
63.95
58.79
50.44
40.46
32.11
28.59
31.50
39.15
46.71
49.20
44.40
34.75
25.37
20.91
22.62
27.65
31.64
31.55
27.49
22.10
18.30
17.64
19.91
24.10
29.72
36.87
45.57
54.94
62.72
66.46
64.35
55.74
41.04
21.24
-1.96
-25.72
-45.89
-58.28
-60.63
-53.80
-41.95
-29.83
-20.40
-13.15
-4.89
7.71
25.47
45.58
63.08
73.41
74.44
66.95
53.58
37.20
20.35
5.20
-5.86
-10.58
-7.87
1.47
14.12
25.50
31.70
30.98
24.88
16.91
10.94
9.37
12.34
18.42
25.38
31.67
36.16
38.18
37.09
32.09
22.96
10.83
-1.77
-11.40
-15.03
-11.81
-3.42
6.31
13.38
15.33
12.27
6.22
-0.17
-4.82
-7.03
-6.85
-4.41
0.43
7.88
17.25
26.57
32.79
32.98
26.37
15.52
6.62
6.82
20.86
47.59
79.44
105.45
116.74
111.26
94.44
75.41
61.09
52.58
45.86
36.33
23.09
9.06
-2.01
-10.08
-19.69
-36.77
-62.89
-92.20
-113.76
-117.92
-103.08
-76.95
-52.50
-40.39
-42.76
-52.57
-57.79
-48.47
-21.65
17.40
58.33
90.31
106.03
103.73
86.25
59.60
30.56
5.08
-13.08
-22.82
-25.35
-23.53
-20.19
-18.36
-20.35
-27.59
-39.64
-53.73
-65.05
-68.42
-61.25
-44.03
-22.05
-2.23
10.28
14.83
15.25
16.51
21.02
25.13
23.31
9.93
-15.03
-44.14
-65.55
-68.80
-50.83
-17.96
15.23
35.90
34.81
11.08
-28.50
-73.46
-113.71
-142.93
-158.90
-164.31
-159.96
-148.98
-134.68
-120.56
-110.49
-108.03
-116.06
-124.94
-146.00
-173.09
-200.06
-220.90
-231.36
-230.58
-220.58
-204.73
-185.92
-166.42
-142.64
-111.15
-68.87
-15.13
46.89
110.13
165.25
203.37
218.14
211.25
188.29
157.78
128.06
104.81
90.17
83.39
82.29
83.84
87.07
90.49
92.41
90.79
83.72
70.16
50.86
28.55
7.07
-8.81
-16.04
-13.55
-2.70
13.69
31.61
46.61
54.38
52.12
40.81
25.79
16.06
20.26
42.25
77.43
113.85
137.63
140.64
125.65
105.00
94.14
102.14
126.36
153.96
169.46
163.95
139.98
110.05
89.08
86.36
100.97
123.10
139.94
142.13
127.46
99.30
63.66
25.84
-10.04
-40.09
-60.02
-66.46
-59.72
-45.30
-32.97
-31.44
-43.16
-62.25
-77.60
-80.06
-67.89
-48.36
-32.32
-26.90
-30.82
-35.84
-33.52
-21.70
-6.93
0.16
-7.73
-28.91
-52.87
-66.34
-60.79
-37.03
-4.02
26.11
44.10
46.91
37.30
21.13
3.77
-11.90
-25.83
-38.76
-50.73
-60.10
-63.91
-60.08
-48.52
-31.89
-13.62
3.48
18.88
33.78
49.01
63.25
72.25
71.08
57.06
32.17
2.74
-23.07
-38.68
-41.79
-34.12
-20.37
-5.97
4.97
10.63
12.13
12.55
15.63
23.82
36.85
51.61
63.09
66.33
57.44
35.39
2.07
-37.43
-76.18
-106.66
-123.16
-123.66
-110.18
-88.04
-62.71
-38.06
-15.57
4.81
22.70
36.59
44.26
44.76
39.03
30.04
20.97
13.52
7.65
2.06
-3.79
-9.21
-12.10
-10.94
-6.02
0.55
5.63
7.35
5.42
1.50
-2.83
-6.73
-10.62
-15.47
-21.40
-27.65
-32.46
-34.58
-33.42
-29.31
-22.84
-14.19
-3.73
8.02
18.91
26.20
27.52
22.71
14.43
6.84
3.96
7.15
14.92
23.19
28.27
28.21
23.68
17.49
12.72
11.46
13.19
15.92
17.32
16.72
15.23
14.50
15.55
16.96
15.89
9.38
-3.23
-19.17
-33.50
-41.54
-42.11
-37.63
-33.15
-32.60
-36.46
-41.85
-44.60
-42.81
-37.69
-32.61
-29.57
-27.49
-22.41
-10.29
8.93
30.37
45.71
47.97
35.26
12.19
-12.42
-29.71
-34.58
-27.55
-13.10
2.57
14.52
19.86
17.57
7.81
-8.78
-30.53
-54.59
-76.46
-91.32
-95.83
-89.75
-76.62
-62.00
-51.38
-47.27
-48.52
-51.24
-50.96
-44.58
-30.72
-9.88
16.89
47.63
79.25
107.25
126.62
133.49
126.19
105.97
76.23
41.71
7.61
-20.65
-37.92
-40.59
-27.73
-2.16
30.17
62.02
87.42
103.48
110.48
110.61
105.98
97.83
86.40
71.99
55.75
39.59
25.57
15.06
8.43
4.62
1.96
-1.21
-5.96
-12.60
-20.86
-30.15
-40.09
-50.86
-62.99
-77.08
-93.28
-111.18
-129.53
-146.74
-161.18
-171.81
-178.42
-181.56
-182.32
-181.68
-180.26
-177.80
-173.56
-166.56
-156.03
-142.07
-125.36
-107.27
-88.92
-71.21
-54.04
-36.55
-17.29
5.59
33.58
67.37
105.81
145.93
182.98
211.62
227.64
229.18
217.78
197.40
173.37
150.47
131.72
117.82
107.03
96.97
85.44
71.99
57.49
43.86
32.62
24.31
18.59
14.58
11.90
10.20
9.63
10.01
11.17
13.15
16.18
20.86
27.04
33.73
38.53
39.31
35.06
26.85
17.45
9.52
5.44
6.16
11.56
20.53
31.03
40.53
46.18
46.55
41.68
33.72
25.29
18.40
13.35
8.78
2.82
-6.15
-18.20
-32.66
-48.19
-63.46
-77.01
-86.74
-90.84
-88.06
-79.18
-66.55
-53.83
-43.73
-36.92
-31.99
-25.82
-16.50
-3.97
9.36
19.80
24.60
23.46
19.29
16.25
18.04
25.07
34.66
41.70
41.55
32.79
18.00
2.98
-6.69
-7.86
-1.65
7.91
16.04
19.17
16.50
8.95
-1.20
-11.55
-19.64
-23.41
-21.75
-14.81
-4.79
5.51
12.98
15.92
14.41
9.84
3.98
-2.17
-8.02
-13.88
-19.99
-26.50
-32.78
-37.73
-40.15
-39.09
-34.94
-29.51
-25.84
-26.42
-31.50
-38.24
-41.31
-36.16
-21.37
-0.71
18.67
29.81
29.71
21.67
13.15
12.43
23.69
45.54
71.24
92.21
101.51
95.84
76.02
45.39
8.87
-28.24
-60.31
-82.20
-90.36
-83.88
-65.61
-41.43
-19.16
-6.13
-7.53
-24.40
-53.50
-87.79
-118.24
-136.70
-137.76
-120.07
-86.01
-40.43
10.86
62.15
108.26
144.76
167.88
174.91
164.86
139.54
104.02
65.53
32.18
10.14
1.96
5.76
16.57
29.14
39.86
47.87
53.70
57.95
59.66
56.93
48.49
35.39
21.05
9.38
2.88
1.05
1.26
0.44
-3.32
-10.10
-18.98
-28.69
-38.34
-47.20
-54.18
-58.07
-57.97
-54.02
-47.26
-39.68
-33.01
-28.66
-27.29
-28.78
-32.74
-37.67
-41.80
-43.04
-40.42
-34.30
-26.29
-18.58
-12.63
-9.26
-8.11
-8.69
-10.05
-11.21
-11.23
-10.06
-9.02
-10.08
-15.66
-26.61
-41.68
-57.20
-68.38
-71.51
-65.00
-50.16
-29.99
-8.47
11.02
25.85
34.78
38.21
37.09
32.82
26.34
18.46
9.81
1.39
-5.45
-9.12
-7.85
-1.58
8.47
20.23
31.93
42.76
52.58
60.85
67.20
72.49
78.12
86.33
99.31
118.44
143.30
171.39
198.87
219.05
228.18
224.96
210.03
185.22
152.34
113.34
74.64
36.90
-0.61
-37.80
-74.02
-107.67
-135.94
-155.95
-163.75
-157.03
-137.51
-109.60
-79.10
-51.37
-29.40
-14.81
-6.09
0.02
6.10
12.33
17.74
21.31
22.74
22.44
21.40
20.99
22.23
25.43
29.84
35.16
41.07
47.48
53.90
59.80
65.21
70.42
75.29
79.16
81.17
80.29
75.63
66.98
52.63
31.35
2.57
-32.77
-71.53
-108.03
-135.53
-146.76
-140.09
-119.81
-93.92
-70.77
-55.71
-49.51
-49.22
-50.71
-51.08
-50.01
-48.62
-47.73
-47.04
-45.30
-41.26
-34.66
-26.52
-18.47
-12.49
-9.46
-8.84
-9.17
-8.74
-6.43
-2.09
3.42
8.84
12.82
14.83
15.19
14.88
14.97
16.18
18.65
21.90
25.21
27.82
29.47
30.30
30.77
31.39
32.51
34.17
36.15
38.10
39.27
39.64
39.33
38.55
37.49
36.27
34.89
33.25
31.22
28.68
25.61
21.94
17.64
12.65
6.96
0.49
-6.83
-15.07
-24.33
-34.61
-46.01
-58.60
-72.50
-87.74
-104.48
-122.87
-143.06
-165.21
-189.41
-215.74
-244.11
-274.36
-306.02
-338.42
-370.70
-401.83
-430.47
-455.03
-473.81
-485.02
-487.48
-479.93
-461.54
-432.34
-393.10
-345.53
-292.00
-235.23
-178.02
-122.87
-71.87
-26.36
12.70
44.80
69.89
88.18
100.43
107.59
110.97
111.99
112.03
112.08
112.67
114.00
116.05
119.04
123.65
131.12
142.91
160.62
185.00
215.76
251.66
290.88
331.77
373.11
414.50
454.57
492.28
526.22
554.12
573.44
581.78
577.89
562.19
536.59
504.14
468.27
432.31
398.99
369.98
344.97
320.92
292.27
252.57
197.33
126.90
47.09
-32.49
-101.95
-154.80
-189.69
-209.61
-219.40
-223.09
-222.65
-218.65
-211.52
-202.53
-193.67
-186.77
-182.41
-179.74
-176.95
-171.87
-163.68
-152.90
-141.09
-130.10
-121.29
-114.97
-110.37
-106.11
-100.87
-94.01
-85.78
-77.09
-69.11
-62.68
-58.03
-54.69
-51.83
-48.61
-44.63
-39.94
-35.05
-30.60
-27.08
-24.64
-23.07
-21.89
-20.62
-19.01
-17.02
-14.88
-12.96
-11.57
-10.86
-10.72
-10.85
-10.85
-10.44
-9.55
-8.40
-7.46
-7.17
-7.78
-9.14
-10.72
-11.80
-11.83
-10.73
-9.02
-7.64
-7.60
-9.37
-12.64
-16.28
-18.84
-19.20
-17.19
-13.82
-10.92
-10.31
-12.93
-18.23
-24.31
-28.72
-29.79
-27.24
-22.52
-18.07
-16.00
-17.44
-22.32
-29.78
-38.49
-46.47
-50.59
-46.75
-31.46
-4.35
30.09
63.23
85.50
91.05
80.62
61.22
42.45
31.74
31.31
37.97
45.98
50.40
49.28
43.76
36.58
30.35
26.28
23.97
21.35
16.06
6.38
-7.79
-24.34
-39.99
-51.98
-59.61
-64.24
-67.71
-70.16
-69.03
-60.09
-40.28
-10.26
24.92
57.57
80.71
90.73
88.17
76.20
58.35
36.89
12.87
-12.52
-36.53
-54.83
-62.63
-57.28
-40.07
-16.52
5.29
17.29
14.98
-0.74
-23.41
-43.35
-51.85
-44.96
-24.93
0.92
24.28
39.89
47.24
49.84
52.14
56.72
62.90
67.43
66.60
58.14
42.53
22.80
3.53
-10.81
-17.19
-14.93
-5.95
5.68
15.48
20.16
18.79
12.69
4.30
-4.31
-12.19
-19.29
-25.69
-30.77
-33.44
-32.62
-28.04
-20.79
-13.07
-7.37
-5.54
-7.85
-12.55
-16.39
-16.14
-10.10
0.85
13.26
22.82
26.26
22.95
15.14
6.41
0.02
-2.93
-3.86
-5.72
-11.47
-22.85
-39.78
-60.33
-81.36
-98.48
-107.05
-103.63
-87.38
-61.09
-30.41
-2.35
18.15
28.96
31.03
27.07
19.46
9.20
-3.70
-19.13
-36.17
-52.86
-67.03
-76.62
-79.83
-75.13
-61.51
-39.47
-11.36
18.51
45.12
64.52
75.23
78.44
76.92
73.08
67.97
61.46
53.34
44.40
36.78
32.74
33.19
36.42
38.43
34.70
22.33
1.79
-23.41
-48.12
-68.81
-85.17
-99.80
-116.26
-136.58
-160.19
-184.68
-207.61
-226.76
-241.12
-249.60
-249.93
-239.31
-216.13
-181.98
-142.20
-104.42
-74.52
-55.54
-46.82
-44.82
-44.88
-42.92
-35.78
-20.12
-0.82
21.13
45.11
70.41
96.14
121.29
145.03
167.09
188.03
209.00
232.32
258.68
286.46
311.49
328.24
331.80
320.04
294.67
260.60
224.99
193.57
169.20
151.71
139.07
128.88
119.68
110.99
102.84
95.68
89.31
83.08
76.33
68.58
59.53
49.09
37.32
24.51
11.58
-0.31
-10.02
-16.83
-20.84
-23.08
-25.12
-28.50
-34.06
-41.41
-49.29
-55.99
-59.96
-60.35
-57.43
-52.59
-47.94
-45.57
-46.66
-50.93
-56.57
-61.12
-62.56
-60.38
-55.85
-51.32
-48.99
-49.83
-53.37
-58.37
-63.92
-70.09
-77.85
-88.19
-101.01
-114.53
-125.52
-130.48
-127.00
-114.86
-96.10
-74.22
-52.81
-34.27
-19.29
-7.02
3.88
14.33
24.18
32.42
37.91
40.30
40.37
39.72
39.94
41.75
44.65
47.17
47.65
44.98
39.10
30.84
21.51
12.36
4.24
-2.22
-6.45
-7.83
-5.85
-0.48
7.54
16.90
26.13
34.21
40.93
46.96
53.30
60.73
69.24
77.83
84.75
88.02
86.15
78.79
67.10
53.63
41.57
33.52
30.40
31.09
32.98
33.23
30.06
23.25
13.79
3.05
-7.92
-18.70
-29.07
-38.58
-46.47
-51.97
-54.85
-55.79
-56.13
-57.26
-59.97
-64.06
-68.53
-72.04
-73.50
-72.42
-69.06
-64.16
-58.69
-53.47
-49.01
-45.47
-42.73
-40.54
-38.64
-36.75
-34.71
-32.39
-29.76
-26.85
-23.70
-20.49
-17.51
-15.13
-13.57
-12.61
-11.40
-8.61
-2.86
6.66
19.74
35.06
50.48
63.67
72.53
75.63
72.30
62.74
47.97
29.83
10.68
-7.04
-21.38
-31.44
-37.50
-40.95
-43.67
-47.39
-53.00
-60.28
-68.03
-74.51
-78.14
-77.86
-73.40
-65.01
-53.28
-38.95
-23.01
-6.80
8.01
19.70
27.01
29.57
28.09
24.16
19.76
16.64
15.75
17.02
19.50
21.94
23.48
24.16
24.76
26.03
27.71
28.05
24.43
14.80
-0.72
-19.33
-36.59
-48.38
-52.90
-51.25
-46.62
-42.38
-40.51
-41.19
-43.53
-46.71
-50.53
-55.19
-60.28
-64.30
-64.81
-59.72
-48.50
-32.68
-15.25
0.84
13.85
23.71
31.29
37.32
41.56
42.93
40.41
33.88
24.43
13.90
3.93
-4.66
-11.76
-17.50
-21.64
-23.51
-22.45
-18.36
-11.87
-4.07
4.09
12.18
20.22
28.20
35.71
41.88
45.78
46.89
45.43
42.25
38.35
34.47
30.87
27.52
24.34
21.54
19.52
18.62
18.88
19.92
21.07
21.75
21.70
21.09
20.33
19.81
19.58
19.46
19.06
18.15
16.72
14.99
13.29
11.92
11.06
10.73
10.85
11.24
11.62
11.68
11.15
9.98
8.37
6.76
5.73
5.75
6.97
9.12
11.59
13.63
14.70
14.59
13.50
11.88
10.20
8.77
7.70
6.98
6.66
6.90
7.76
9.14
10.67
11.77
12.00
11.20
9.64
7.83
6.35
5.59
5.68
6.50
7.86
9.52
11.30
13.00
14.49
15.75
16.82
17.81
18.80
19.71
20.35
20.54
20.26
19.63
18.96
18.47
18.15
17.86
17.42
16.73
15.65
13.86
10.94
6.72
1.68
-2.96
-5.54
-4.89
-1.01
4.68
9.83
12.15
10.30
4.26
-5.02
-16.23
-28.23
-40.15
-51.26
-60.83
-68.19
-72.89
-75.01
-75.10
-73.83
-72.02
-70.07
-68.10
-65.90
-63.17
-59.69
-55.41
-50.54
-45.51
-40.80
-36.68
-33.18
-30.06
-26.92
-23.45
-19.55
-15.42
-11.45
-8.17
-5.96
-5.03
-5.33
-6.54
-8.24
-9.94
-11.17
-11.53
-10.71
-8.54
-5.02
-0.32
5.16
10.86
16.09
20.15
22.45
22.67
20.83
17.32
12.75
7.83
3.16
-0.89
-4.21
-6.81
-8.81
-10.28
-11.36
-12.23
-13.15
-14.39
-16.08
-18.16
-20.41
-22.59
-24.70
-26.92
-29.64
-33.23
-37.79
-43.14
-48.85
-54.49
-59.90
-65.22
-70.79
-76.73
-82.69
-87.45
-89.31
-86.50
-77.75
-62.57
-41.27
-14.79
15.27
46.65
76.51
101.93
120.74
132.44
138.44
141.53
144.65
149.72
157.10
165.60
173.62
179.89
183.42
183.08
177.62
166.32
149.61
129.37
107.94
87.29
68.34
50.90
34.27
18.25
3.63
-8.38
-16.90
-22.78
-27.66
-32.95
-39.15
-45.99
-52.82
-59.04
-64.55
-69.62
-76.10
-85.00
-95.26
-104.50
-110.64
-112.67
-110.31
-104.29
-95.50
-88.14
-84.93
-84.99
-85.19
-83.15
-78.31
-70.82
-61.91
-52.46
-48.25
-53.01
-65.22
-80.24
-94.50
-106.83
-116.25
-123.04
-126.80
-134.11
-149.92
-173.49
-200.85
-229.62
-260.10
-291.98
-325.22
-314.99
-240.10
-120.70
1.72
100.48
170.05
208.86
229.53
238.10
237.99
224.94
196.88
161.74
130.32
109.91
101.22
101.76
106.43
111.94
111.69
102.69
88.15
74.43
66.04
63.79
67.64
75.93
87.09
94.98
94.13
83.16
64.69
47.46
40.01
46.75
64.49
87.39
108.58
124.48
135.61
144.69
151.13
153.12
150.26
143.89
136.32
128.34
120.76
114.55
110.34
103.21
88.87
66.89
38.53
10.24
-15.42
-37.59
-56.41
-72.63
-93.53
-123.98
-162.84
-205.32
-247.58
-289.15
-330.88
-374.09
-380.69
-336.87
-262.22
-187.59
-128.73
-86.06
-55.07
-31.39
-12.21
3.94
11.84
9.23
0.04
-8.93
-13.11
-11.84
-6.58
0.70
8.25
10.04
2.78
-11.68
-28.17
-41.26
-46.42
-39.92
-20.09
11.36
46.18
75.60
94.47
102.29
101.66
96.52
90.58
85.91
82.59
78.17
71.14
62.43
54.48
49.22
47.02
46.84
47.00
45.93
42.46
36.79
30.27
24.67
21.12
19.75
19.79
20.04
19.45
17.50
14.32
10.60
7.22
4.89
3.86
3.93
4.48
4.79
4.21
2.56
0.05
-2.81
-5.33
-6.94
-7.44
-7.05
-6.36
-6.14
-6.91
-8.86
-11.65
-14.65
-17.12
-18.48
-18.40
-16.64
-13.17
-8.34
-3.17
0.66
1.34
-2.17
-9.51
-18.71
-26.76
-30.94
-29.84
-24.07
-15.70
-7.27
-0.59
3.83
6.61
8.80
11.19
13.98
16.85
19.40
21.41
23.05
24.66
26.59
28.93
31.35
33.36
34.32
33.85
31.98
29.16
26.06
23.19
20.61
17.93
14.89
11.73
9.46
9.46
12.59
18.43
25.24
30.62
32.62
30.73
26.01
20.45
16.02
13.80
13.73
14.90
16.31
17.40
18.39
20.09
23.39
28.53
34.63
39.79
41.98
40.26
35.59
30.62
28.44
30.96
37.79
46.49
53.22
54.25
47.51
33.45
14.88
-3.92
-18.53
-25.69
-24.27
-15.83
-4.35
4.73
6.03
-4.02
-25.85
-56.43
-90.21
-120.95
-143.81
-156.45
-159.23
-154.13
-143.43
-128.46
-109.33
-85.67
-57.86
-28.05
0.18
23.13
38.85
48.30
55.28
64.80
81.01
105.29
135.94
169.07
200.39
226.63
246.02
257.69
260.95
255.29
241.45
222.50
204.23
193.65
196.28
213.25
239.97
267.15
284.03
282.29
258.79
216.01
160.18
98.34
35.78
-24.91
-83.11
-138.71
-190.87
-238.13
-279.17
-314.02
-344.43
-373.27
-403.13
-435.12
-468.44
-501.21
-531.75
-559.42
-584.36
-606.35
-623.57
-632.31
-628.14
-607.82
-571.06
-520.91
-462.70
-402.10
-343.30
-288.22
-236.83
-188.36
-142.26
-98.66
-58.15
-21.07
12.85
44.51
75.12
105.81
137.40
170.40
204.78
239.75
273.41
302.84
324.75
336.54
337.31
328.23
312.00
291.74
269.88
247.82
226.18
205.46
186.53
170.40
157.56
147.58
139.18
130.91
122.00
112.61
103.49
95.41
88.55
82.45
76.29
69.34
61.18
51.53
40.09
26.55
10.96
-5.83
-21.97
-35.22
-44.04
-48.58
-50.90
-53.99
-60.38
-70.65
-83.26
-95.05
-102.38
-102.13
-92.22
-71.80
-41.63
-4.28
35.98
74.04
105.49
128.20
142.98
152.86
161.46
171.40
183.61
197.66
212.09
224.61
231.82
229.52
214.55
186.77
149.98
111.03
77.41
54.37
43.52
43.19
49.83
59.75
69.59
75.60
73.07
57.30
25.17
-22.95
-83.32
-150.29
-216.97
-276.38
-322.97
-353.92
-370.17
-376.68
-379.81
-385.20
-395.70
-407.33
-410.73
-396.69
-360.82
-305.57
-238.43
-165.83
-91.75
-19.38
52.11
125.26
199.84
272.65
339.05
394.79
440.58
478.24
505.17
521.33
529.74
532.62
531.30
526.23
517.10
507.11
498.05
484.53
464.43
440.46
415.46
392.01
372.21
332.80
263.68
201.31
157.94
122.12
87.26
47.59
-0.77
-58.70
-123.95
-188.04
-243.33
-291.10
-332.46
-366.57
-393.78
-414.15
-426.89
-430.83
-422.61
-401.93
-376.34
-351.99
-330.37
-310.43
-289.26
-264.15
-234.74
-201.74
-168.13
-139.60
-117.84
-100.08
-83.32
-66.90
-53.61
-48.25
-53.70
-69.18
-90.80
-110.53
-118.95
-109.33
-79.41
-31.35
29.54
96.73
163.17
221.18
263.64
284.71
280.61
251.05
200.00
135.39
67.28
5.27
-43.98
-78.01
-98.34
-108.99
-114.48
-118.23
-121.68
-124.37
-124.65
-120.59
-110.80
-94.98
-73.99
-49.52
-23.30
3.80
32.34
63.92
99.93
140.02
180.86
216.44
239.40
243.35
224.58
182.78
121.11
45.81
-33.88
-106.44
-159.83
-184.81
-178.71
-147.70
-105.87
-70.46
-55.20
-64.66
-92.51
-124.30
-143.44
-137.23
-100.87
-38.23
40.13
120.18
187.71
231.06
242.94
221.16
168.76
93.72
8.17
-73.44
-137.32
-173.95
-181.24
-165.56
-139.72
-118.15
-111.08
-120.39
-139.32
-156.19
-160.16
-146.11
-116.36
-78.70
-42.38
-14.18
3.40
11.70
14.01
13.61
12.62
12.06
12.47
14.60
19.37
27.25
37.90
49.85
61.02
69.41
73.86
74.42
72.20
68.86
65.95
64.34
63.86
63.56
62.11
58.57
52.83
45.76
38.85
33.53
30.56
29.74
30.07
30.27
29.31
26.84
23.20
19.19
15.67
13.20
11.90
11.44
11.31
10.94
10.03
8.55
6.70
4.83
3.26
2.23
1.82
2.04
2.76
3.82
5.00
6.07
6.82
7.14
7.01
6.56
5.99
5.46
5.02
4.61
4.09
3.37
2.44
1.45
0.61
0.09
-0.09
-0.13
-0.31
-0.92
-1.99
-3.26
-4.25
-4.45
-3.55
-1.58
1.03
3.60
5.42
5.95
5.04
2.85
-0.17
-3.47
-6.54
-9.04
-10.75
-11.61
-11.66
-11.02
-9.90
-8.56
-7.24
-6.15
-5.41
-4.98
-4.69
-4.34
-3.70
-2.72
-1.52
-0.38
0.38
0.56
0.20
-0.52
-1.30
-1.90
-2.25
-2.44
-2.62
-2.91
-3.33
-3.83
-4.31
-4.67
-4.83
-4.75
-4.36
-3.72
-2.90
-2.08
-1.43
-1.07
-0.99
-1.11
-1.24
-1.21
-0.91
-0.34
0.44
1.27
2.02
2.54
2.78
2.71
2.38
1.89
1.36
0.96
0.77
0.90
1.37
2.19
3.28
4.52
5.71
6.65
7.22
7.44
7.53
7.74
8.31
9.32
10.69
12.16
13.45
14.38
14.84
14.92
14.76
14.51
14.21
13.78
12.93
11.23
8.15
3.25
-3.63
-12.26
-21.86
-31.28
-39.17
-44.38
-46.30
-44.98
-41.08
-35.47
-29.02
-22.33
-15.87
-10.16
-5.88
-3.89
-4.91
-9.30
-16.80
-26.53
-37.10
-46.76
-53.76
-56.74
-55.27
-50.13
-43.18
-36.67
-32.37
-30.88
-31.61
-33.34
-34.91
-35.78
-35.88
-35.27
-33.85
-31.33
-27.65
-23.09
-18.37
-14.15
-10.75
-7.99
-5.42
-2.73
0.05
2.65
4.87
6.67
8.23
9.65
10.89
11.72
11.95
11.68
11.32
11.42
12.33
13.97
15.87
17.33
17.85
17.28
15.99
14.53
13.45
12.98
13.01
13.19
13.20
12.88
12.30
11.67
11.13
10.75
10.43
10.03
9.50
8.85
8.21
7.72
7.53
7.70
8.22
8.98
9.78
10.50
11.04
11.45
11.79
12.09
12.24
11.99
11.16
9.72
7.97
6.40
5.51
5.52
6.32
7.49
8.53
9.04
8.89
8.17
7.10
5.87
4.60
3.31
2.02
0.74
-0.43
-1.37
-1.94
-2.10
-1.92
-1.60
-1.39
-1.46
-1.83
-2.27
-2.47
-2.12
-1.16
0.21
1.55
2.37
2.42
1.73
0.64
-0.41
-1.09
-1.29
-1.13
-0.80
-0.44
-0.03
0.53
1.35
2.40
3.61
4.89
6.25
7.85
9.86
12.39
15.27
18.13
20.39
21.48
20.96
18.67
14.85
10.13
5.39
1.50
-0.88
-1.55
-0.82
0.74
2.46
3.90
4.83
5.28
5.35
5.18
4.93
4.76
4.87
5.36
6.24
7.37
8.47
9.23
9.39
8.89
7.87
6.70
5.81
5.60
6.20
7.47
9.04
10.50
11.56
12.18
12.51
12.81
13.25
13.90
14.65
15.38
15.92
16.21
16.27
16.24
16.34
16.83
17.88
19.57
21.73
24.01
25.95
27.05
27.04
25.94
24.14
22.28
21.06
20.88
21.67
22.94
23.98
24.23
23.57
22.38
21.31
20.87
21.22
22.01
22.65
22.75
22.34
21.93
22.17
23.37
25.20
26.68
26.51
23.53
17.03
6.90
-6.35
-21.53
-36.74
-49.33
-56.43
-55.76
-46.75
-31.24
-13.24
2.30
11.28
11.95
5.30
-5.76
-17.98
-29.12
-38.51
-46.58
-53.87
-60.43
-65.71
-69.03
-70.18
-69.59
-67.98
-65.80
-62.78
-58.17
-51.30
-42.32
-32.48
-23.93
-18.96
-19.19
-24.84
-34.67
-46.26
-56.71
-63.50
-65.20
-61.85
-54.81
-46.13
-37.81
-31.11
-26.37
-23.23
-21.18
-19.87
-19.26
-19.30
-19.70
-19.79
-18.72
-15.92
-11.39
-5.80
-0.16
4.60
8.00
10.09
11.22
11.77
11.88
11.41
10.11
7.84
4.77
1.31
-2.05
-4.95
-7.17
-8.72
-9.64
-9.96
-9.67
-8.85
-7.60
-6.05
-4.32
-2.37
-0.01
2.99
6.80
11.38
16.41
21.41
25.81
29.16
31.28
32.24
32.31
31.84
31.13
30.35
29.54
28.65
27.54
26.12
24.40
22.50
20.74
19.48
19.13
19.88
21.64
24.04
26.50
28.45
29.47
29.43
28.48
27.01
25.51
24.36
23.62
22.96
21.74
19.24
15.04
9.20
2.34
-4.61
-10.69
-15.21
-17.84
-18.62
-17.77
-15.63
-12.62
-9.16
-5.72
-2.67
-0.33
1.16
1.89
2.08
2.11
2.38
3.25
4.85
7.10
9.69
12.23
14.38
15.98
17.00
17.51
17.62
17.39
17.00
16.77
17.18
18.71
21.54
25.41
29.54
32.93
34.68
34.33
32.02
28.31
23.94
19.48
15.21
11.12
7.04
2.89
-1.26
-5.24
-8.83
-11.96
-14.69
-17.20
-19.60
-21.90
-23.94
-25.48
-26.33
-26.51
-26.22
-25.80
-25.52
-25.39
-25.24
-24.74
-23.62
-21.77
-19.25
-16.31
-13.31
-10.71
-8.92
-8.20
-8.54
-9.66
-11.21
-12.88
-14.73
-16.98
-19.87
-23.30
-26.73
-29.33
-30.35
-29.44
-26.68
-22.49
-17.28
-11.45
-5.33
0.63
5.91
9.93
12.35
13.09
12.39
10.63
8.24
5.65
3.20
1.21
-0.16
-1.00
-1.67
-2.60
-4.01
-5.81
-7.53
-8.61
-8.67
-7.77
-6.35
-5.04
-4.38
-4.65
-5.77
-7.40
-9.09
-10.37
-10.81
-10.18
-8.47
-5.96
-3.23
-1.02
-0.02
-0.72
-3.20
-7.02
-11.42
-15.45
-18.30
-19.54
-19.16
-17.44
-14.79
-11.50
-7.74
-3.61
0.73
4.92
8.44
10.72
11.32
10.08
7.26
3.48
-0.40
-3.49
-5.16
-5.13
-3.57
-0.92
2.36
5.98
9.85
14.05
18.60
23.46
28.35
32.99
37.08
40.34
42.54
43.41
42.70
40.32
36.49
31.72
26.78
22.39
19.03
16.75
15.19
13.84
12.26
10.23
7.83
5.33
3.13
1.55
0.88
1.15
2.15
3.33
4.02
3.71
2.33
0.40
-1.24
-1.85
-1.25
-0.01
0.84
0.37
-1.74
-4.93
-8.05
-9.87
-9.62
-7.28
-3.41
1.05
5.20
8.27
9.68
9.15
6.71
2.74
-2.02
-6.71
-10.60
-13.32
-14.95
-15.91
-16.66
-17.58
-18.73
-19.90
-20.69
-20.67
-19.54
-17.24
-14.08
-10.60
-7.45
-5.08
-3.66
-3.00
-2.73
-2.49
-2.07
-1.42
-0.54
0.58
1.96
3.54
5.14
6.41
7.00
6.77
5.89
4.83
4.12
4.04
4.49
4.99
4.92
3.82
1.63
-1.29
-4.29
-6.73
-8.23
-8.78
-8.72
-8.53
-8.70
-9.42
-10.67
-12.24
-13.87
-15.42
-16.84
-18.14
-19.27
-20.07
-20.35
-20.04
-19.26
-18.32
-17.56
-17.19
-17.17
-17.26
-17.07
-16.33
-14.95
-13.12
-11.15
-9.29
-7.60
-5.89
-3.79
-0.98
2.67
6.97
11.45
15.53
18.73
20.76
21.70
21.80
21.48
21.10
20.94
21.13
21.71
22.67
23.98
25.59
27.35
29.05
30.43
31.27
31.52
31.32
30.94
30.70
30.81
31.33
32.16
33.12
34.09
34.93
35.59
36.03
36.24
36.21
35.87
35.11
33.71
31.37
27.88
23.18
17.53
11.46
5.61
0.57
-3.38
-6.30
-8.57
-10.66
-12.94
-15.49
-18.10
-20.47
-22.27
-23.39
-23.87
-23.89
-23.63
-23.21
-22.67
-22.07
-21.43
-20.84
-20.35
-19.99
-19.78
-19.63
-19.39
-18.79
-17.56
-15.49
-12.60
-9.21
-5.83
-3.00
-1.09
-0.16
-0.04
-0.38
-0.85
-1.26
-1.55
-1.82
-2.28
-3.14
-4.67
-6.99
-10.01
-13.38
-16.61
-19.16
-20.70
-21.19
-20.89
-20.16
-19.22
-18.05
-16.35
-13.80
-10.27
-6.14
-2.29
0.12
-0.03
-3.21
-8.88
-15.44
-20.56
-21.99
-18.43
-10.26
0.39
10.17
15.59
14.17
5.25
-9.88
-28.37
-46.62
-61.12
-69.39
-70.68
-66.32
-59.37
-53.52
-51.67
-54.68
-61.12
-68.01
-72.28
-72.16
-67.63
-60.12
-51.42
-42.78
-34.71
-27.20
-20.33
-14.55
-10.42
-8.24
-7.58
-7.38
-6.25
-3.12
2.27
9.21
16.27
21.83
24.75
24.82
22.82
20.18
18.36
18.22
19.71
21.93
23.59
23.61
21.64
18.14
14.12
10.56
7.96
6.17
4.70
3.16
1.62
0.66
1.01
3.04
6.50
10.58
14.50
17.92
21.18
25.01
29.90
35.63
41.03
44.46
44.45
40.41
32.78
22.88
12.35
2.63
-5.29
-10.91
-14.16
-15.29
-14.88
-13.64
-12.28
-11.34
-11.13
-11.49
-11.76
-10.62
-6.15
3.59
19.50
40.17
61.53
77.52
82.35
73.03
50.93
21.15
-9.70
-36.25
-55.82
-67.56
-70.51
-62.55
-41.61
-8.41
31.23
67.05
88.14
88.12
68.59
38.51
9.77
-8.46
-13.28
-8.04
0.95
8.38
12.40
14.40
17.00
21.84
28.53
34.86
38.21
36.81
30.66
21.63
12.63
6.30
3.85
4.53
6.16
6.36
3.87
-0.68
-5.16
-7.14
-5.32
-0.21
6.19
11.49
14.19
14.41
13.62
13.64
15.52
18.92
22.33
23.97
22.84
19.27
14.70
10.93
9.13
9.33
10.65
11.86
12.09
11.20
9.50
7.43
5.03
1.98
-2.17
-7.46
-13.33
-18.69
-22.39
-23.80
-23.19
-21.66
-20.71
-21.66
-25.13
-30.84
-37.78
-44.55
-49.79
-52.52
-52.39
-49.69
-45.38
-40.88
-37.76
-37.31
-39.95
-44.88
-50.03
-52.63
-50.16
-41.44
-27.16
-9.71
7.72
22.25
32.28
37.66
39.34
38.66
36.78
34.46
32.17
30.24
28.84
27.89
26.94
25.27
22.29
17.86
12.54
7.51
4.18
3.73
6.64
12.42
19.72
26.76
31.87
34.05
33.21
30.15
26.21
22.79
20.87
20.70
21.73
22.81
22.70
20.58
16.59
11.81
7.81
5.80
5.89
6.83
6.53
3.07
-4.29
-14.69
-25.99
-35.50
-40.75
-40.02
-32.57
-18.74
-0.04
20.76
39.99
54.00
60.17
57.90
48.59
34.96
19.79
4.99
-8.54
-20.37
-29.89
-36.12
-38.09
-35.56
-29.35
-21.13
-12.70
-5.24
0.96
6.31
11.29
16.10
20.47
23.93
26.07
26.76
26.13
24.54
22.50
20.54
19.21
18.82
19.41
20.62
21.86
22.58
22.42
21.40
19.93
18.60
18.02
18.64
20.56
23.60
27.42
31.64
36.05
40.56
45.12
49.62
53.92
57.82
61.15
63.81
65.69
66.76
67.26
68.02
70.63
77.25
89.85
109.14
133.77
160.20
183.56
199.15
204.02
197.90
182.98
162.77
140.66
118.90
98.24
78.57
59.70
42.01
26.49
14.16
5.29
-1.08
-7.02
-14.91
-26.48
-42.05
-60.50
-80.00
-98.90
-116.65
-134.06
-152.95
-175.53
-203.89
-239.85
-284.77
-338.78
-399.76
-462.47
-518.91
-560.32
-580.04
-576.00
-551.46
-513.49
-470.00
-426.99
-387.29
-351.06
-317.28
-285.10
-254.27
-224.61
-195.57
-166.01
-134.83
-101.58
-66.78
-31.64
2.41
34.58
65.11
95.36
127.33
162.74
201.85
242.67
281.02
311.73
330.49
335.62
328.66
313.61
295.23
277.11
260.85
246.28
232.54
219.26
206.98
196.72
189.20
184.22
180.49
176.13
169.23
158.43
143.30
124.51
103.69
83.13
65.14
51.40
42.52
37.89
36.05
35.42
34.81
33.61
31.62
28.67
24.45
18.75
11.92
5.27
1.04
1.62
8.63
21.98
39.79
59.07
76.97
92.11
105.06
117.95
133.09
151.42
171.34
188.87
198.85
196.82
180.68
151.60
113.63
72.52
34.21
3.35
-17.59
-28.84
-33.33
-36.18
-43.66
-61.41
-92.62
-136.35
-187.20
-236.07
-272.46
-287.48
-276.74
-241.97
-190.65
-133.76
-82.33
-44.29
-22.57
-15.12
-16.77
-21.68
-25.38
-25.67
-22.22
-15.73
-7.31
1.99
11.23
19.44
25.76
29.64
31.23
31.48
31.84
33.09
35.56
39.17
43.62
48.57
53.71
58.97
64.64
71.43
78.84
86.23
93.15
99.43
105.03
109.71
113.24
115.67
117.50
116.97
111.90
100.28
80.89
53.23
17.40
-25.64
-74.03
-124.88
-177.81
-232.22
-286.41
-337.25
-381.18
-415.79
-440.41
-456.13
-449.28
-411.79
-344.91
-260.95
-175.93
-101.32
-41.80
2.36
30.63
45.37
44.33
25.12
-11.91
-61.83
-116.20
-166.11
-201.76
-217.61
-213.37
-196.36
-176.31
-161.11
-153.80
-152.62
-153.34
-151.89
-146.39
-136.75
-125.38
-114.09
-103.05
-90.80
-75.58
-56.54
-34.06
-9.79
14.71
37.64
58.29
77.09
95.27
114.13
134.35
155.89
178.22
201.10
224.58
249.22
275.38
302.33
327.74
347.91
358.85
357.68
343.69
318.42
285.10
247.48
208.98
172.31
139.48
111.94
90.53
75.37
65.65
59.73
55.53
51.04
44.80
36.17
25.33
13.08
0.52
-11.29
-21.58
-30.04
-36.78
-42.17
-46.59
-50.15
-52.70
-53.87
-53.41
-51.39
-48.31
-45.08
-42.75
-42.23
-43.97
-47.83
-53.07
-58.57
-63.15
-65.81
-65.90
-63.12
-57.58
-49.83
-40.99
-32.72
-26.85
-24.74
-26.51
-30.68
-34.42
-34.58
-28.82
-16.57
0.98
21.48
42.40
61.90
79.04
93.66
105.94
116.07
124.00
129.50
132.38
132.74
131.20
128.86
127.02
126.55
127.38
128.38
127.72
123.73
115.52
103.28
88.01
70.99
53.55
36.94
22.39
10.95
3.16
-1.37
-3.93
-6.26
-9.76
-14.91
-21.33
-28.24
-35.06
-41.74
-48.56
-55.56
-62.34
-68.04
-71.79
-73.17
-72.37
-69.96
-66.57
-62.58
-58.01
-52.74
-46.69
-40.01
-33.12
-26.48
-20.52
-15.46
-11.33
-8.03
-5.37
-3.15
-1.14
0.87
3.00
5.20
7.27
9.00
10.29
11.32
12.44
13.97
15.90
17.84
19.21
19.50
18.60
16.77
14.59
12.61
11.12
10.09
9.29
8.42
7.28
5.83
4.12
2.26
0.30
-1.73
-3.84
-6.06
-8.43
-11.07
-14.11
-17.65
-21.60
-25.55
-28.82
-30.58
-30.19
-27.42
-22.68
-16.75
-10.56
-4.78
0.39
5.15
9.85
14.74
19.85
24.99
29.91
34.35
38.06
40.75
42.12
42.10
41.08
39.91
39.60
40.77
43.21
45.84
47.19
46.05
42.09
35.82
28.29
20.43
12.75
5.30
-2.04
-9.24
-16.07
-22.23
-27.63
-32.42
-36.92
-41.45
-46.09
-50.68
-54.86
-58.29
-60.86
-62.73
-64.37
-66.29
-68.75
-71.49
-73.74
-74.45
-72.73
-68.22
-61.21
-52.42
-42.61
-32.28
-21.62
-10.73
0.03
10.01
18.43
24.77
29.02
31.72
33.60
35.24
36.82
38.10
38.76
38.66
37.94
36.97
36.02
35.12
34.03
32.45
30.30
27.85
25.57
23.84
22.67
21.71
20.36
18.18
15.09
11.36
7.35
3.30
-0.90
-5.56
-11.02
-17.33
-24.24
-31.31
-38.14
-44.59
-50.78
-56.85
-62.71
-67.90
-71.61
-73.00
-71.58
-67.50
-61.51
-54.64
-47.74
-41.20
-34.88
-28.44
-21.69
-14.88
-8.59
-3.43
0.28
2.69
4.32
5.76
7.47
9.65
12.35
15.67
19.73
24.53
29.71
34.49
37.90
39.19
38.23
35.53
32.09
28.85
26.43
24.97
24.26
23.91
23.60
23.04
22.04
20.54
18.60
16.39
14.13
11.87
9.49
6.76
3.50
-0.31
-4.46
-8.69
-12.82
-16.77
-20.50
-23.85
-26.49
-28.01
-28.09
-26.62
-23.85
-20.17
-16.08
-12.00
-8.25
-5.02
-2.45
-0.58
0.64
1.36
1.82
2.23
2.70
3.19
3.63
3.95
4.20
4.54
5.14
6.07
7.24
8.41
9.30
9.71
9.56
8.91
7.80
6.30
4.41
2.14
-0.43
-3.16
-5.93
-8.70
-11.58
-14.78
-18.50
-22.71
-27.08
-31.01
-33.80
-34.87
-34.01
-31.37
-27.38
-22.59
-17.47
-12.36
-7.43
-2.79
1.44
5.11
8.07
10.24
11.67
12.51
13.03
13.49
14.05
14.70
15.37
15.85
16.01
15.80
15.28
14.58
13.79
12.91
11.84
10.44
8.62
6.42
4.03
1.62
-0.65
-2.83
-5.03
-7.41
-9.99
-12.64
-15.17
-17.42
-19.38
-21.25
-23.33
-25.84
-28.81
-31.96
-34.78
-36.61
-36.80
-34.87
-30.61
-24.19
-16.16
-7.36
1.34
9.21
15.89
21.41
26.00
29.85
32.99
35.24
36.48
36.72
36.21
35.30
34.21
32.95
31.33
29.16
26.45
23.45
20.53
18.00
15.97
14.41
13.21
12.31
11.69
11.21
10.58
9.31
6.96
3.29
-1.60
-7.32
-13.39
-19.42
-25.18
-30.58
-35.49
-39.73
-43.21
-46.13
-49.01
-52.51
-57.09
-62.66
-68.52
-73.59
-76.80
-77.53
-75.59
-71.19
-64.84
-57.30
-49.65
-43.18
-38.91
-36.96
-36.17
-34.32
-29.02
-18.86
-4.07
13.50
31.32
47.12
59.61
68.57
74.29
77.20
77.56
75.68
72.04
67.38
62.50
57.97
53.93
50.24
46.60
42.74
38.56
34.02
29.12
23.89
18.45
13.03
7.96
3.62
0.29
-1.82
-2.66
-2.28
-0.76
1.73
5.00
8.74
12.59
16.16
19.09
21.17
22.32
22.63
22.33
21.68
21.01
20.52
20.32
20.29
20.21
19.77
18.78
17.18
15.14
12.88
10.59
8.27
5.82
3.04
-0.12
-3.55
-6.95
-10.02
-12.59
-14.69
-16.52
-18.34
-20.34
-22.59
-25.10
-27.84
-30.74
-33.66
-36.28
-38.16
-38.80
-37.83
-35.16
-30.99
-25.70
-19.77
-13.57
-7.38
-1.39
4.21
9.23
13.52
16.96
19.50
21.19
22.11
22.42
22.30
21.95
21.51
21.05
20.52
19.82
18.81
17.45
15.78
13.90
11.97
10.05
8.15
6.17
4.01
1.64
-0.87
-3.33
-5.56
-7.41
-8.90
-10.19
-11.57
-13.38
-15.86
-19.11
-23.00
-27.16
-31.02
-33.94
-35.40
-35.08
-32.95
-29.27
-24.47
-19.02
-13.38
-7.90
-2.82
1.69
5.59
8.89
11.66
13.98
15.96
17.64
19.09
20.26
21.09
21.43
21.17
20.25
18.75
16.92
15.08
13.46
12.13
10.94
9.60
7.83
5.52
2.75
-0.23
-3.18
-5.90
-8.34
-10.55
-12.66
-14.83
-17.22
-19.96
-23.06
-26.43
-29.72
-32.44
-34.04
-34.06
-32.29
-28.81
-23.99
-18.36
-12.46
-6.69
-1.29
3.68
8.28
12.54
16.44
19.85
22.57
24.47
25.56
26.03
26.20
26.40
26.87
27.72
28.88
30.16
31.28
31.89
31.72
30.53
28.31
25.18
21.41
17.32
13.17
9.15
5.28
1.57
-2.03
-5.50
-8.81
-11.87
-14.62
-17.04
-19.21
-21.27
-23.43
-25.90
-28.76
-31.88
-34.95
-37.51
-39.09
-39.31
-38.01
-35.21
-31.16
-26.21
-20.79
-15.33
-10.13
-5.40
-1.15
2.64
6.01
8.94
11.42
13.43
15.02
16.30
17.40
18.36
19.17
19.75
20.06
20.11
19.97
19.70
19.35
18.85
18.11
17.07
15.73
14.14
12.41
10.62
8.79
6.93
5.01
3.00
0.88
-1.34
-3.63
-5.96
-8.26
-10.50
-12.66
-14.78
-16.95
-19.29
-21.86
-24.54
-27.02
-28.80
-29.41
-28.49
-25.98
-22.10
-17.27
-12.02
-6.79
-1.86
2.59
6.56
10.02
12.95
15.28
16.96
18.02
18.60
18.94
19.32
19.91
20.70
21.49
22.00
22.05
21.60
20.83
19.93
18.98
17.91
16.55
14.76
12.59
10.30
8.20
6.54
5.28
4.13
2.70
0.72
-1.81
-4.61
-7.29
-9.57
-11.37
-12.88
-14.40
-16.26
-18.62
-21.49
-24.64
-27.70
-30.18
-31.63
-31.68
-30.20
-27.30
-23.27
-18.55
-13.56
-8.64
-4.07
-0.04
3.33
5.95
7.81
8.95
9.49
9.57
9.41
9.17
8.99
8.92
8.89
8.81
8.59
8.19
7.66
7.09
6.50
5.86
5.01
3.82
2.21
0.27
-1.83
-3.88
-5.74
-7.42
-9.02
-10.69
-12.54
-14.60
-16.83
-19.17
-21.56
-23.92
-26.11
-27.87
-28.84
-28.62
-26.92
-23.73
-19.33
-14.22
-9.00
-4.12
0.19
3.87
6.98
9.53
11.45
12.65
13.14
13.06
12.67
12.29
12.09
12.09
12.13
11.99
11.55
10.78
9.78
8.64
7.42
6.05
4.41
2.40
0.04
-2.55
-5.13
-7.44
-9.34
-10.85
-12.18
-13.64
-15.52
-18.00
-21.00
-24.23
-27.21
-29.40
-30.34
-29.72
-27.46
-23.73
-18.87
-13.37
-7.75
-2.46
2.18
6.09
9.37
12.22
14.86
17.38
19.71
21.66
23.01
23.61
23.44
22.62
21.36
19.86
18.29
16.76
15.26
13.78
12.26
10.65
8.89
6.96
4.82
2.47
-0.05
-2.67
-5.29
-7.83
-10.20
-12.43
-14.59
-16.84
-19.31
-22.01
-24.77
-27.21
-28.80
-29.00
-27.50
-24.25
-19.55
-13.98
-8.19
-2.72
2.13
6.27
9.79
12.76
15.15
16.83
17.64
17.57
16.77
15.59
14.39
13.44
12.79
12.32
11.80
11.06
10.05
8.80
7.31
5.58
3.50
1.05
-1.74
-4.72
-7.70
-10.51
-13.11
-15.57
-18.06
-20.72
-23.61
-26.61
-29.45
-31.69
-32.87
-32.60
-30.65
-27.09
-22.25
-16.60
-10.67
-4.82
0.69
5.71
10.10
13.70
16.36
18.02
18.81
18.99
18.88
18.75
18.68
18.63
18.42
17.91
17.03
15.87
14.58
13.34
12.23
11.19
10.04
8.53
6.47
3.78
0.59
-2.87
-6.30
-9.51
-12.43
-15.18
-17.99
-21.06
-24.53
-28.36
-32.32
-35.93
-38.60
-39.70
-38.75
-35.57
-30.39
-23.78
-16.47
-9.20
-2.50
3.41
8.53
12.98
16.89
20.25
23.02
25.10
26.50
27.29
27.63
27.66
27.49
27.13
26.54
25.63
24.33
22.65
20.64
18.43
16.17
13.99
11.93
9.92
7.87
5.65
3.23
0.69
-1.84
-4.25
-6.53
-8.76
-11.10
-13.70
-16.62
-19.88
-23.38
-26.93
-30.27
-33.03
-34.73
-34.96
-33.38
-29.89
-24.69
-18.19
-10.97
-3.63
3.33
9.53
14.77
18.97
22.16
24.44
25.98
26.94
27.54
27.98
28.43
28.93
29.38
29.53
29.17
28.19
26.66
24.84
23.02
21.44
20.10
18.88
17.55
15.93
13.98
11.77
9.51
7.28
5.15
3.05
0.84
-1.56
-4.16
-6.83
-9.40
-11.67
-13.62
-15.41
-17.33
-19.71
-22.73
-26.27
-29.86
-32.77
-34.17
-33.46
-30.45
-25.43
-19.09
-12.25
-5.59
0.47
5.80
10.42
14.33
17.47
19.71
20.95
21.30
21.03
20.56
20.23
20.28
20.70
21.27
21.72
21.80
21.38
20.44
19.07
17.39
15.50
13.46
11.30
9.06
6.80
4.60
2.50
0.47
-1.51
-3.52
-5.58
-7.66
-9.69
-11.59
-13.37
-15.08
-16.88
-18.90
-21.23
-23.83
-26.53
-29.04
-30.90
-31.61
-30.68
-27.90
-23.35
-17.51
-11.04
-4.64
1.18
6.17
10.29
13.57
16.02
17.65
18.46
18.53
18.11
17.48
16.96
16.70
16.72
16.89
17.04
16.97
16.55
15.77
14.61
13.15
11.44
9.52
7.48
5.38
3.31
1.34
-0.46
-2.13
-3.73
-5.38
-7.19
-9.24
-11.51
-13.90
-16.25
-18.44
-20.40
-22.23
-24.15
-26.40
-29.08
-32.04
-34.82
-36.72
-37.06
-35.36
-31.58
-26.09
-19.51
-12.53
-5.67
0.70
6.47
11.56
15.93
19.52
22.27
24.17
25.34
25.96
26.26
26.42
26.51
26.54
26.47
26.29
26.01
25.71
25.39
25.03
24.50
23.63
22.32
20.52
18.30
15.82
13.24
10.76
8.46
6.37
4.39
2.36
0.12
-2.39
-5.10
-7.78
-10.19
-12.20
-13.85
-15.38
-17.14
-19.43
-22.36
-25.76
-29.24
-32.22
-34.11
-34.44
-32.92
-29.56
-24.63
-18.60
-12.08
-5.70
-0.01
4.62
8.02
10.28
11.60
12.30
12.66
12.91
13.14
13.37
13.54
13.62
13.56
13.36
13.00
12.45
11.68
10.66
9.42
7.99
6.45
4.86
3.24
1.57
-0.21
-2.16
-4.30
-6.56
-8.80
-10.93
-12.85
-14.61
-16.28
-17.99
-19.85
-21.95
-24.29
-26.80
-29.27
-31.36
-32.59
-32.48
-30.68
-27.15
-22.16
-16.28
-10.10
-4.07
1.55
6.69
11.28
15.16
18.09
19.89
20.56
20.41
19.88
19.37
19.13
19.12
19.18
19.11
18.80
18.23
17.45
16.52
15.45
14.25
12.90
11.39
9.72
7.90
5.96
3.94
1.91
-0.11
-2.11
-4.14
-6.27
-8.54
-10.91
-13.30
-15.55
-17.59
-19.42
-21.18
-23.08
-25.34
-28.05
-31.06
-33.99
-36.26
-37.24
-36.43
-33.59
-28.84
-22.61
-15.52
-8.24
-1.36
4.75
9.92
14.18
17.61
20.33
22.45
24.07
25.23
25.97
26.32
26.31
26.01
25.55
25.02
24.53
24.09
23.61
22.95
21.99
20.63
18.88
16.78
14.45
12.00
9.57
7.31
5.34
3.65
2.12
0.56
-1.20
-3.25
-5.53
-7.91
-10.27
-12.53
-14.73
-16.98
-19.42
-22.14
-25.15
-28.28
-31.22
-33.49
-34.54
-33.92
-31.43
-27.21
-21.65
-15.37
-8.96
-2.92
2.41
6.91
10.54
13.37
15.49
16.97
17.87
18.30
18.38
18.29
18.19
18.19
18.29
18.31
18.10
17.50
16.49
15.17
13.68
12.11
10.49
8.80
6.99
5.03
2.97
0.85
-1.32
-3.54
-5.83
-8.15
-10.46
-12.66
-14.73
-16.70
-18.73
-21.05
-23.81
-27.02
-30.46
-33.70
-36.23
-37.55
-37.32
-35.38
-31.77
-26.73
-20.63
-13.97
-7.23
-0.80
5.07
10.29
14.86
18.78
21.98
24.40
25.99
26.85
27.15
27.10
26.86
26.52
26.10
25.58
24.99
24.33
23.61
22.80
21.87
20.78
19.50
18.00
16.25
14.28
12.15
10.00
7.94
6.04
4.21
2.28
0.05
-2.52
-5.31
-8.11
-10.70
-12.97
-14.96
-16.85
-18.79
-20.90
-23.23
-25.77
-28.57
-31.61
-34.79
-37.84
-40.26
-41.39
-40.64
-37.68
-32.60
-25.91
-18.39
-10.81
-3.77
2.49
7.93
12.66
16.72
20.12
22.81
24.80
26.18
27.12
27.78
28.26
28.58
28.69
28.54
28.10
27.40
26.47
25.38
24.21
23.01
21.86
20.74
19.62
18.42
17.02
15.37
13.47
11.41
9.33
7.36
5.56
3.90
2.29
0.62
-1.23
-3.32
-5.69
-8.29
-10.99
-13.64
-16.12
-18.45
-20.77
-23.29
-26.18
-29.38
-32.56
-35.15
-36.52
-36.14
-33.83
-29.74
-24.28
-18.05
-11.60
-5.36
0.39
5.50
9.85
13.37
16.02
17.84
18.91
19.44
19.60
19.56
19.41
19.22
19.00
18.81
18.65
18.53
18.40
18.20
17.82
17.20
16.26
14.95
13.26
11.23
9.00
6.74
4.63
2.77
1.11
-0.54
-2.42
-4.70
-7.41
-10.36
-13.27
-15.89
-18.05
-19.78
-21.27
-22.79
-24.65
-27.06
-30.05
-33.42
-36.74
-39.39
-40.67
-40.08
-37.37
-32.72
-26.61
-19.71
-12.66
-5.91
0.28
5.85
10.76
14.96
18.40
21.04
22.93
24.23
25.12
25.78
26.29
26.66
26.82
26.73
26.38
25.83
25.16
24.45
23.73
22.99
22.17
21.18
19.95
18.42
16.63
14.64
12.59
10.60
8.78
7.19
5.84
4.63
3.42
2.02
0.22
-2.08
-4.80
-7.74
-10.59
-13.03
-14.94
-16.40
-17.70
-19.21
-21.25
-23.93
-27.16
-30.64
-33.94
-36.55
-37.93
-37.64
-35.38
-31.17
-25.33
-18.48
-11.39
-4.74
1.00
5.65
9.27
12.08
14.28
16.03
17.40
18.41
19.09
19.47
19.66
19.72
19.72
19.67
19.55
19.33
19.00
18.55
17.96
17.19
16.15
14.79
13.06
11.01
8.77
6.51
4.37
2.39
0.55
-1.21
-2.97
-4.77
-6.66
-8.62
-10.64
-12.69
-14.72
-16.67
-18.57
-20.51
-22.66
-25.16
-27.95
-30.74
-32.90
-33.74
-32.71
-29.63
-24.79
-18.78
-12.35
-6.07
-0.32
4.74
9.07
12.65
15.43
17.39
18.58
19.13
19.26
19.19
19.09
19.08
19.17
19.26
19.24
18.98
18.44
17.70
16.87
16.07
15.32
14.51
13.49
12.11
10.38
8.41
6.40
4.52
2.86
1.41
0.05
-1.36
-2.92
-4.72
-6.79
-9.06
-11.42
-13.72
-15.86
-17.79
-19.59
-21.40
-23.36
-25.65
-28.30
-31.21
-34.08
-36.43
-37.69
-37.37
-35.21
-31.33
-26.15
-20.27
-14.25
-8.46
-3.09
1.86
6.45
10.68
14.47
17.73
20.36
22.35
23.78
24.81
25.58
26.16
26.53
26.62
26.36
25.80
25.08
24.33
23.67
23.04
22.28
21.21
19.71
17.84
15.77
13.69
11.74
9.95
8.28
6.63
4.93
3.15
1.29
-0.69
-2.75
-4.86
-6.95
-8.92
-10.72
-12.40
-14.10
-16.02
-18.33
-21.10
-24.26
-27.58
-30.70
-33.19
-34.58
-34.50
-32.76
-29.43
-24.81
-19.37
-13.61
-7.97
-2.77
1.80
5.66
8.73
11.02
12.63
13.68
14.37
14.87
15.36
15.93
16.64
17.44
18.23
18.83
19.04
18.76
17.96
16.78
15.37
13.87
12.26
10.48
8.47
6.28
4.06
2.01
0.21
-1.44
-3.19
-5.26
-7.70
-10.31
-12.79
-14.87
-16.54
-17.96
-19.50
-21.44
-23.93
-26.91
-30.13
-33.20
-35.60
-36.80
-36.27
-33.74
-29.28
-23.37
-16.70
-10.05
-3.98
1.28
5.74
9.57
12.87
15.68
17.96
19.72
21.06
22.11
23.01
23.84
24.59
25.21
25.67
25.93
25.96
25.73
25.21
24.36
23.22
21.91
20.55
19.26
18.08
16.94
15.76
14.44
12.96
11.32
9.54
7.64
5.64
3.58
1.52
-0.46
-2.31
-4.06
-5.86
-7.88
-10.25
-12.91
-15.64
-18.17
-20.32
-22.15
-23.94
-26.03
-28.64
-31.67
-34.66
-36.97
-37.86
-36.67
-32.96
-26.64
-18.08
-8.20
1.57
9.72
15.09
17.40
17.38
16.51
16.56
19.00
24.64
33.43
44.47
56.11
66.20
72.49
73.11
67.14
55.00
38.57
20.83
5.10
-5.93
-10.77
-9.42
-3.08
6.25
16.23
24.64
29.74
30.81
28.42
24.51
21.83
22.85
28.82
39.09
51.45
63.07
71.67
76.16
76.63
73.79
68.36
60.83
51.61
41.25
30.57
20.54
11.97
5.35
0.76
-2.04
-3.30
-3.22
-1.78
1.10
5.39
10.80
16.75
22.46
27.19
30.44
31.94
31.64
29.65
26.31
22.18
18.09
14.81
12.90
12.42
12.98
13.79
14.02
12.90
9.94
4.96
-1.87
-10.05
-18.86
-27.59
-35.78
-43.36
-50.55
-57.49
-63.97
-69.39
-73.02
-74.45
-73.98
-72.60
-71.51
-71.42
-72.03
-72.21
-70.72
-67.26
-63.08
-60.67
-62.60
-70.06
-82.13
-95.91
-107.73
-114.54
-114.68
-107.81
-94.52
-75.94
-54.06
-32.23
-15.11
-7.68
-13.24
-31.69
-58.84
-87.61
-110.57
-122.88
-123.84
-116.69
-106.61
-98.10
-93.12
-90.74
-88.22
-82.84
-73.38
-60.57
-46.48
-33.31
-22.35
-13.60
-6.21
0.68
7.34
13.29
17.68
19.93
20.18
19.42
19.08
20.39
23.70
28.34
32.81
35.54
35.62
33.18
29.39
25.84
23.81
23.70
24.90
26.18
26.27
24.50
20.99
16.60
12.40
9.20
7.25
6.22
5.44
4.26
2.25
-0.66
-4.24
-8.08
-11.64
-14.34
-15.64
-15.16
-12.82
-8.89
-3.94
1.32
6.26
10.55
14.09
17.00
19.39
21.35
22.84
23.84
24.39
24.67
24.90
25.31
25.96
26.77
27.55
28.08
28.25
28.08
27.66
27.08
26.36
25.45
24.25
22.72
20.87
18.73
16.35
13.74
10.91
7.92
4.89
1.98
-0.75
-3.38
-6.10
-9.13
-12.64
-16.64
-21.02
-25.58
-30.10
-34.30
-37.84
-40.33
-41.38
-40.70
-38.21
-34.08
-28.70
-22.58
-16.14
-9.74
-3.51
2.48
8.21
13.62
18.57
22.87
26.40
29.16
31.27
32.94
34.36
35.64
36.81
37.87
38.79
39.53
40.06
40.32
40.19
39.58
38.38
36.58
34.24
31.54
28.70
25.93
23.36
20.94
18.53
15.91
12.95
9.64
6.14
2.60
-0.83
-4.13
-7.37
-10.67
-14.19
-18.09
-22.50
-27.42
-32.60
-37.50
-41.36
-43.40
-43.04
-40.14
-34.98
-28.15
-20.36
-12.17
-3.99
3.93
11.39
18.20
24.22
29.33
33.55
36.94
39.60
41.63
43.11
44.07
44.57
44.68
44.50
44.07
43.44
42.60
41.53
40.28
38.86
37.32
35.64
33.73
31.52
28.98
26.17
23.24
20.35
17.59
14.94
12.27
9.44
6.33
2.92
-0.71
-4.48
-8.31
-12.14
-15.95
-19.75
-23.61
-27.64
-31.97
-36.66
-41.53
-46.10
-49.66
-51.42
-50.78
-47.52
-41.87
-34.43
-25.98
-17.27
-8.89
-1.22
5.53
11.27
15.99
19.74
22.61
24.76
26.33
27.47
28.32
28.98
29.55
30.08
30.58
30.98
31.20
31.05
30.35
28.98
26.92
24.35
21.48
18.57
15.80
13.21
10.74
8.23
5.56
2.67
-0.35
-3.38
-6.27
-8.95
-11.49
-14.04
-16.88
-20.21
-24.21
-28.88
-34.11
-39.56
-44.63
-48.53
-50.38
-49.48
-45.54
-38.87
-30.27
-20.76
-11.33
-2.60
5.24
12.30
18.76
24.68
29.88
33.99
36.68
37.84
37.73
36.85
35.85
35.18
34.98
35.08
35.17
34.98
34.48
33.78
33.00
32.16
31.06
29.46
27.23
24.47
21.44
18.50
15.87
13.54
11.34
8.99
6.31
3.23
-0.16
-3.72
-7.27
-10.65
-13.76
-16.59
-19.28
-22.03
-25.15
-28.93
-33.54
-38.84
-44.36
-49.35
-52.86
-54.03
-52.31
-47.63
-40.45
-31.61
-22.06
-12.62
-3.81
4.16
11.29
17.60
23.10
27.74
31.47
34.36
36.56
38.27
39.65
40.74
41.47
41.71
41.36
40.41
39.00
37.38
35.76
34.30
33.01
31.78
30.40
28.62
26.29
23.40
20.16
16.88
13.85
11.21
8.84
6.47
3.80
0.66
-2.86
-6.52
-10.00
-13.10
-15.78
-18.18
-20.56
-23.21
-26.41
-30.33
-34.97
-40.02
-44.84
-48.52
-50.05
-48.69
-44.18
-36.90
-27.70
-17.70
-7.93
0.85
8.29
14.36
19.16
22.84
25.52
27.31
28.32
28.73
28.76
28.61
28.45
28.39
28.43
28.50
28.53
28.38
27.96
27.20
26.05
24.47
22.44
20.02
17.29
14.38
11.45
8.57
5.71
2.78
-0.37
-3.80
-7.49
-11.28
-14.99
-18.51
-21.89
-25.30
-29.01
-33.24
-38.05
-43.30
-48.56
-53.16
-56.31
-57.22
-55.30
-50.36
-42.71
-33.16
-22.83
-12.80
-3.84
3.78
10.23
15.84
20.89
25.42
29.27
32.24
34.28
35.53
36.28
36.75
37.05
37.13
36.85
36.17
35.11
33.88
32.67
31.60
30.65
29.65
28.39
26.66
24.41
21.66
18.59
15.39
12.29
9.44
6.88
4.55
2.25
-0.25
-3.15
-6.45
-10.01
-13.51
-16.66
-19.32
-21.56
-23.68
-26.03
-28.97
-32.71
-37.33
-42.71
-48.45
-53.85
-57.93
-59.58
-58.00
-52.93
-44.84
-34.84
-24.29
-14.36
-5.81
1.20
6.88
11.61
15.69
19.28
22.44
25.19
27.59
29.71
31.62
33.30
34.66
35.52
35.78
35.39
34.46
33.23
31.98
30.92
30.05
29.21
28.07
26.33
23.87
20.80
17.44
14.18
11.31
8.91
6.85
4.88
2.75
0.30
-2.52
-5.62
-8.87
-12.07
-15.07
-17.80
-20.27
-22.64
-25.15
-28.07
-31.57
-35.68
-40.10
-44.27
-47.43
-48.73
-47.52
-43.49
-36.86
-28.32
-18.93
-9.78
-1.68
4.93
10.06
13.89
16.70
18.67
19.92
20.57
20.84
21.05
21.48
22.27
23.32
24.34
24.98
25.06
24.57
23.69
22.65
21.56
20.37
18.89
16.93
14.46
11.62
8.68
5.89
3.35
0.95
-1.53
-4.28
-7.38
-10.72
-14.11
-17.33
-20.26
-22.87
-25.25
-27.60
-30.18
-33.32
-37.29
-42.18
-47.69
-53.12
-57.40
-59.39
-58.27
-53.75
-46.30
-36.91
-26.83
-17.16
-8.59
-1.28
4.96
10.48
15.54
20.21
24.36
27.82
30.49
32.41
33.72
34.59
35.08
35.15
34.76
33.93
32.82
31.66
30.69
29.97
29.41
28.71
27.60
25.87
23.49
20.61
17.49
14.42
11.65
9.32
7.38
5.65
3.83
1.62
-1.13
-4.37
-7.87
-11.32
-14.43
-17.11
-19.44
-21.67
-24.09
-26.97
-30.56
-34.96
-40.14
-45.76
-51.16
-55.40
-57.44
-56.47
-52.18
-44.92
-35.64
-25.55
-15.84
-7.28
-0.16
5.69
10.65
15.03
18.97
22.38
25.08
27.01
28.26
29.07
29.70
30.26
30.74
30.98
30.86
30.39
29.72
29.06
28.54
28.12
27.55
26.53
24.81
22.37
19.37
16.19
13.21
10.70
8.71
7.09
5.51
3.65
1.28
-1.64
-4.93
-8.30
-11.43
-14.13
-16.50
-18.89
-21.72
-25.39
-30.02
-35.34
-40.75
-45.37
-48.31
-48.77
-46.31
-40.96
-33.30
-24.30
-15.12
-6.73
0.29
5.81
10.05
13.35
15.95
17.94
19.35
20.23
20.73
21.12
21.65
22.45
23.48
24.58
25.47
25.90
25.80
25.21
24.33
23.35
22.41
21.46
20.34
18.78
16.65
13.96
10.96
8.02
5.50
3.56
2.13
0.89
-0.55
-2.52
-5.17
-8.42
-11.98
-15.55
-18.85
-21.70
-24.10
-26.19
-28.28
-30.71
-33.87
-37.97
-42.98
-48.42
-53.45
-56.96
-57.91
-55.64
-50.13
-42.00
-32.32
-22.29
-12.87
-4.60
2.46
8.51
13.82
18.59
22.84
26.55
29.64
32.10
33.97
35.31
36.14
36.49
36.41
35.98
35.35
34.72
34.24
33.94
33.73
33.37
32.60
31.29
29.39
27.03
24.39
21.65
18.94
16.34
13.90
11.64
9.57
7.66
5.82
3.91
1.79
-0.65
-3.41
-6.47
-9.75
-13.11
-16.42
-19.54
-22.38
-24.97
-27.49
-30.24
-33.54
-37.60
-42.28
-47.06
-51.02
-53.16
-52.58
-48.89
-42.31
-33.67
-24.11
-14.75
-6.40
0.59
6.22
10.69
14.20
16.85
18.72
19.92
20.66
21.21
21.82
22.61
23.53
24.41
25.04
25.32
25.24
24.92
24.44
23.84
23.03
21.85
20.18
18.00
15.43
12.66
9.89
7.22
4.66
2.13
-0.49
-3.26
-6.21
-9.30
-12.44
-15.55
-18.51
-21.24
-23.78
-26.27
-29.04
-32.46
-36.80
-41.98
-47.53
-52.50
-55.74
-56.27
-53.48
-47.49
-39.01
-29.20
-19.26
-10.11
-2.30
4.13
9.33
13.56
16.99
19.73
21.84
23.44
24.66
25.66
26.58
27.42
28.10
28.45
28.34
27.75
26.76
25.55
24.36
23.33
22.46
21.63
20.59
19.15
17.23
14.90
12.35
9.78
7.34
5.06
2.92
0.84
-1.26
-3.48
-5.92
-8.68
-11.79
-15.14
-18.59
-21.95
-25.13
-28.19
-31.32
-34.81
-38.85
-43.48
-48.47
-53.32
-57.23
-59.36
-58.98
-55.74
-49.82
-41.90
-32.99
-24.03
-15.69
-8.27
-1.74
3.99
8.98
13.19
16.59
19.21
21.23
22.92
24.50
26.09
27.69
29.26
30.65
31.67
32.10
31.90
31.40
31.47
33.31
38.06
46.25
57.49
70.57
83.98
96.52
107.68
117.59
126.65
135.18
143.21
150.61
157.28
163.10
167.77
170.57
170.34
165.83
156.09
140.86
120.65
96.57
70.08
42.71
15.94
-8.96
-31.01
-49.58
-64.39
-75.28
-82.11
-84.72
-83.13
-77.89
-70.16
-61.45
-53.14
-45.89
-39.52
-33.21
-26.04
-17.44
-7.35
3.87
15.59
27.05
37.33
45.51
50.78
52.86
52.19
49.85
47.10
44.87
43.27
41.65
39.00
34.49
27.81
19.20
9.26
-1.41
-12.42
-23.57
-34.86
-46.25
-57.60
-68.60
-78.87
-87.98
-95.58
-101.39
-105.30
-107.43
-108.21
-108.31
-108.59
-109.78
-112.21
-115.69
-119.64
-123.32
-126.17
-127.95
-128.61
-128.01
-125.75
-121.18
-113.79
-103.66
-91.67
-79.35
-68.22
-59.25
-52.47
-47.02
-41.70
-35.44
-27.64
-18.15
-7.11
5.32
19.05
33.91
49.59
65.46
80.77
94.82
107.05
117.12
124.86
130.22
133.23
134.04
132.90
130.14
126.21
121.60
116.85
112.50
108.97
106.53
105.23
104.89
105.18
105.77
106.38
106.79
106.73
105.73
103.19
98.46
90.97
80.36
66.51
49.59
30.08
8.86
-12.73
-33.08
-50.53
-63.86
-72.55
-76.80
-77.43
-75.62
-72.66
-69.91
-68.69
-70.00
-74.24
-80.92
-88.70
-95.87
-100.99
-103.42
-103.50
-102.08
-100.09
-98.03
-95.90
-93.55
-91.03
-88.82
-87.67
-88.11
-90.08
-92.91
-95.49
-96.84
-96.48
-94.53
-91.65
-88.55
-85.64
-82.89
-79.96
-76.56
-72.74
-68.92
-65.65
-63.10
-60.74
-57.37
-51.46
-41.77
-28.07
-11.38
6.37
23.07
37.39
49.22
59.58
69.89
81.11
93.15
104.90
114.81
121.68
125.06
125.25
122.92
118.89
114.05
109.35
105.69
103.42
102.09
100.47
97.18
91.65
84.56
77.65
72.81
70.90
71.32
72.30
71.83
68.53
61.96
52.24
39.58
24.00
5.61
-14.94
-36.18
-56.07
-72.64
-84.69
-92.14
-96.00
-97.83
-99.07
-100.71
-103.06
-105.97
-108.94
-111.39
-112.67
-112.29
-110.02
-106.02
-100.81
-95.04
-89.25
-83.57
-77.76
-71.47
-64.59
-57.42
-50.49
-44.19
-38.39
-32.34
-25.06
-15.92
-5.20
5.83
15.33
21.53
23.51
21.55
17.06
11.93
7.98
6.34
7.30
10.44
15.01
20.27
25.70
31.08
36.30
41.28
45.89
50.01
53.72
57.20
60.64
64.04
66.97
68.59
67.77
63.32
54.35
40.59
22.67
2.26
-18.12
-35.88
-49.17
-57.69
-62.79
-66.79
-71.90
-79.18
-88.23
-97.63
-105.68
-111.03
-113.07
-111.95
-108.93
-106.59
-108.44
-117.69
-135.18
-157.67
-177.84
-186.69
-177.39
-148.67
-105.63
-57.50
-13.48
20.87
44.99
62.02
76.23
90.77
106.97
124.63
142.51
158.49
169.39
171.39
161.08
136.92
100.60
56.92
12.57
-25.92
-53.89
-69.40
-73.10
-67.58
-56.31
-42.73
-29.47
-18.00
-8.70
-1.36
4.35
8.66
11.77
14.18
16.60
19.86
24.54
30.69
37.77
44.83
50.70
54.36
55.21
53.26
49.00
42.99
35.40
25.68
12.84
-3.72
-23.32
-43.56
-60.89
-71.94
-74.83
-69.72
-58.48
-43.73
-28.01
-13.72
-3.26
1.02
-2.47
-13.34
-28.53
-42.95
-51.36
-50.68
-41.41
-27.24
-13.20
-3.20
1.49
2.09
0.95
-0.19
-1.03
-2.31
-4.80
-8.33
-11.91
-14.40
-15.38
-15.23
-14.33
-12.09
-6.57
4.49
21.69
42.47
61.33
71.82
69.45
53.74
28.14
-1.95
-31.55
-57.59
-78.73
-94.36
-103.78
-106.48
-102.95
-95.13
-85.84
-77.43
-70.65
-64.62
-57.83
-49.52
-40.26
-31.34
-23.90
-18.07
-13.13
-8.22
-3.02
2.01
6.14
9.01
10.99
12.86
15.39
18.77
22.48
25.64
27.44
27.56
26.31
24.37
22.46
21.05
20.25
19.84
19.48
18.84
17.78
16.30
14.49
12.47
10.32
8.05
5.66
3.10
0.31
-2.81
-6.40
-10.64
-15.64
-21.32
-27.31
-33.00
-37.59
-40.38
-41.06
-39.77
-37.05
-33.58
-29.97
-26.47
-22.99
-19.24
-14.94
-9.99
-4.52
1.13
6.56
11.33
15.21
18.07
19.95
21.02
21.45
21.42
21.11
20.69
20.33
20.15
20.18
20.29
20.25
19.83
18.95
17.68
16.26
14.93
13.90
13.17
12.57
11.87
10.84
9.29
7.19
4.61
1.67
-1.43
-4.54
-7.55
-10.51
-13.62
-17.16
-21.39
-26.39
-31.97
-37.60
-42.48
-45.70
-46.49
-44.42
-39.52
-32.26
-23.33
-13.54
-3.55
6.15
15.26
23.58
30.90
37.08
42.02
45.77
48.50
50.40
51.61
52.14
51.97
51.07
49.57
47.71
45.76
43.95
42.32
40.78
39.14
37.19
34.76
31.73
28.09
23.91
19.38
14.78
10.41
6.42
2.79
-0.74
-4.58
-9.15
-14.69
-21.07
-27.75
-33.77
-38.01
-39.46
-37.52
-32.21
-24.19
-14.54
-4.41
5.31
14.09
21.82
28.56
34.36
39.20
42.94
45.53
47.03
47.70
47.88
47.87
47.87
47.89
47.83
47.51
46.82
45.65
44.01
41.95
39.60
37.05
34.39
31.61
28.61
25.22
21.33
16.92
12.16
7.35
2.77
-1.38
-5.10
-8.62
-12.24
-16.30
-21.02
-26.54
-32.77
-39.38
-45.70
-50.76
-53.49
-53.02
-49.03
-41.87
-32.53
-22.26
-12.19
-2.99
5.18
12.51
19.31
25.74
31.78
37.19
41.77
45.37
48.02
49.88
51.13
51.92
52.28
52.22
51.75
50.99
50.11
49.31
48.67
48.09
47.31
46.01
43.96
41.15
37.74
34.04
30.30
26.73
23.32
20.03
16.76
13.43
9.99
6.38
2.54
-1.56
-5.87
-10.20
-14.33
-18.09
-21.52
-24.90
-28.65
-33.20
-38.80
-45.28
-52.07
-58.17
-62.33
-63.43
-60.73
-54.20
-44.50
-32.90
-20.82
-9.48
0.42
8.74
15.72
21.76
27.11
31.83
35.84
39.03
41.40
43.08
44.26
45.13
45.74
46.05
46.00
45.55
44.78
43.83
42.88
42.03
41.21
40.24
38.90
36.97
34.35
31.16
27.64
24.16
21.04
18.41
16.21
14.13
11.80
8.95
5.54
1.76
-2.01
-5.39
-8.17
-10.39
-12.30
-14.35
-17.08
-20.88
-25.94
-32.02
-38.39
-43.89
-47.20
-47.20
-43.31
-35.71
-25.33
-13.64
-2.24
7.49
14.71
19.23
21.47
22.23
22.36
22.51
22.99
23.78
24.69
25.59
26.41
27.21
28.00
28.71
29.12
29.06
28.44
27.37
26.03
24.61
23.15
21.48
19.35
16.59
13.22
9.50
5.85
2.58
-0.24
-2.77
-5.34
-8.22
-11.47
-14.94
-18.38
-21.64
-24.74
-27.88
-31.30
-35.15
-39.47
-44.16
-49.12
-54.14
-58.87
-62.72
-64.79
-64.13
-60.01
-52.29
-41.65
-29.41
-17.18
-6.46
1.85
7.51
10.92
12.86
14.36
16.48
20.28
26.66
35.92
47.24
58.38
65.97
66.76
59.08
44.13
25.97
10.32
2.34
4.66
16.60
34.92
55.65
75.94
94.73
112.17
128.49
142.97
153.82
158.89
156.62
146.59
129.48
106.70
80.07
51.85
25.09
3.51
-9.18
-10.77
-1.79
14.14
31.31
43.91
48.12
43.10
30.66
13.87
-4.46
-22.59
-39.56
-54.45
-65.88
-72.10
-71.64
-63.72
-48.50
-26.94
-0.76
27.40
53.81
74.19
84.88
84.31
73.80
56.97
38.00
19.68
2.70
-13.55
-29.15
-42.36
-49.80
-47.87
-34.45
-9.62
24.60
64.92
106.95
145.04
172.57
183.34
173.95
145.75
104.83
59.77
18.12
-16.31
-43.50
-65.36
-82.86
-94.69
-98.19
-91.86
-77.66
-61.43
-51.01
-52.88
-69.42
-97.97
-132.03
-164.05
-188.03
-201.00
-203.00
-195.75
-181.06
-160.08
-133.59
-102.92
-70.72
-40.69
-16.38
0.29
9.75
14.26
16.39
17.24
15.96
10.58
-0.24
-15.75
-33.19
-48.87
-59.65
-63.63
-60.05
-48.66
-29.92
-5.93
18.47
36.02
39.20
23.91
-7.82
-47.92
-85.52
-112.01
-124.62
-126.53
-123.48
-119.40
-114.09
-104.08
-85.87
-59.23
-28.33
-0.07
19.36
27.21
25.06
17.44
9.41
4.72
5.11
10.59
20.00
31.53
42.88
51.86
57.05
58.33
56.80
54.04
51.02
47.72
43.51
38.11
32.24
27.63
25.89
27.39
30.90
34.36
36.33
37.01
37.83
39.84
42.07
41.28
33.52
16.36
-9.71
-41.43
-74.39
-104.68
-129.81
-148.21
-158.39
-158.50
-146.76
-122.40
-86.45
-41.74
7.90
58.69
107.54
151.84
189.03
216.11
229.83
227.81
209.90
179.65
144.73
115.38
101.03
106.39
128.81
158.64
182.86
190.28
176.07
143.37
101.48
61.69
32.84
18.67
17.59
24.56
33.51
39.22
38.25
29.17
12.51
-9.47
-33.27
-55.20
-72.69
-85.39
-95.12
-104.80
-116.76
-131.46
-147.11
-160.25
-166.97
-164.01
-149.81
-125.31
-94.38
-63.48
-40.22
-30.97
-38.67
-61.79
-94.81
-130.25
-161.08
-182.58
-193.26
-194.52
-189.77
-182.92
-177.14
-173.58
-170.96
-166.01
-154.86
-134.75
-105.15
-68.01
-27.37
11.61
43.98
66.17
77.37
80.20
79.86
82.51
92.96
112.87
140.29
170.43
197.34
215.77
222.44
216.59
199.91
175.92
149.01
123.30
101.73
85.55
74.43
67.21
62.41
58.36
53.18
44.86
32.05
15.12
-3.47
-19.70
-29.70
-31.60
-26.46
-17.74
-9.86
-6.48
-9.69
-19.94
-36.53
-57.93
-81.86
-105.39
-125.23
-138.51
-143.81
-141.85
-135.26
-127.10
-119.14
-110.97
-100.37
-85.17
-65.09
-42.56
-21.84
-7.08
-0.06
1.07
1.25
6.12
19.06
39.07
60.84
77.03
81.62
72.63
52.80
28.22
5.58
-10.37
-18.02
-18.52
-13.99
-6.03
4.94
18.99
35.43
52.07
65.39
71.75
68.70
55.89
35.38
10.93
-13.11
-33.03
-46.70
-53.86
-55.65
-53.61
-48.65
-40.64
-28.66
-11.98
8.68
30.56
49.06
59.03
56.61
40.76
13.83
-19.13
-51.96
-79.10
-96.91
-104.16
-101.97
-93.06
-81.00
-69.41
-61.23
-58.03
-59.67
-64.15
-67.99
-67.06
-57.81
-38.59
-10.63
21.89
52.94
76.64
89.28
90.65
83.92
74.22
66.52
63.94
67.02
74.22
83.05
91.27
97.52
101.21
102.16
100.02
94.23
84.22
70.06
52.86
34.78
18.37
5.66
-2.66
-7.32
-9.91
-11.90
-13.93
-15.56
-15.89
-14.23
-10.75
-6.52
-3.16
-2.25
-4.70
-10.52
-18.83
-28.08
-36.53
-42.74
-45.95
-46.28
-44.57
-42.00
-39.61
-38.02
-37.30
-37.34
-38.01
-39.42
-41.76
-45.10
-49.24
-53.67
-57.87
-61.43
-64.15
-65.83
-66.00
-63.75
-57.91
-47.47
-32.03
-12.19
10.62
34.32
56.58
74.97
87.14
91.09
85.77
71.64
51.10
28.20
7.67
-6.41
-11.88
-9.01
-0.08
11.72
23.49
33.55
41.56
48.17
54.24
60.30
66.19
71.24
74.79
76.70
77.46
78.03
79.20
81.05
82.95
83.81
82.82
79.99
76.15
72.42
69.55
67.40
64.99
61.11
54.90
46.27
35.95
25.17
15.20
6.91
0.55
-4.37
-8.89
-14.37
-22.10
-33.04
-47.55
-65.38
-85.75
-107.44
-128.94
-148.64
-165.22
-178.19
-188.01
-195.78
-202.47
-208.20
-211.77
-210.97
-203.28
-186.80
-160.89
-126.31
-85.07
-40.19
4.50
44.71
76.50
97.25
106.48
105.85
98.22
86.38
72.18
56.95
42.36
31.24
27.17
33.04
49.25
72.74
97.49
116.47
124.21
118.54
100.87
75.07
45.66
16.42
-10.27
-33.09
-51.09
-63.14
-67.88
-64.52
-53.68
-37.99
-21.71
-9.44
-4.24
-6.58
-14.43
-24.51
-34.19
-42.61
-50.38
-58.33
-65.95
-70.72
-69.01
-58.18
-38.50
-13.63
10.93
30.37
42.43
47.70
47.98
44.34
36.21
22.07
1.45
-23.43
-47.97
-66.92
-76.91
-78.10
-73.82
-68.91
-67.54
-71.95
-82.09
-96.02
-110.50
-121.37
-124.22
-115.32
-92.80
-57.72
-14.37
30.38
68.84
94.48
103.65
96.38
76.16
48.95
21.61
0.18
-11.67
-13.43
-7.61
1.18
7.80
8.36
1.33
-12.02
-28.34
-43.50
-54.17
-58.91
-58.47
-54.92
-50.48
-46.42
-42.77
-38.70
-33.37
-26.51
-18.47
-9.65
-0.02
10.78
22.91
35.51
46.59
53.71
55.16
51.17
44.14
37.82
35.68
39.32
47.72
57.78
66.00
70.45
72.11
74.51
81.92
97.10
119.71
146.32
171.62
190.15
197.92
193.15
176.51
150.80
120.32
90.10
64.68
47.14
38.06
35.22
34.17
29.68
17.63
-3.09
-30.02
-57.77
-79.98
-91.96
-92.62
-84.79
-73.84
-65.20
-62.18
-65.32
-73.07
-83.16
-93.49
-102.12
-106.81
-105.00
-94.75
-76.13
-51.97
-27.33
-7.63
3.33
4.68
-1.71
-12.45
-24.10
-34.05
-40.53
-42.39
-38.77
-29.56
-15.74
0.34
15.48
26.55
31.57
30.39
24.71
17.49
11.84
9.80
11.55
15.20
17.64
15.75
7.87
-5.47
-21.61
-36.80
-47.56
-51.81
-49.41
-41.94
-32.13
-23.03
-17.25
-16.54
-21.52
-31.72
-45.84
-61.92
-77.48
-89.67
-95.58
-92.70
-79.42
-55.27
-21.21
20.35
65.57
109.60
147.37
174.86
190.08
193.65
188.12
176.78
162.30
146.06
128.48
109.71
90.22
70.80
52.20
34.67
18.02
2.11
-12.63
-25.22
-34.76
-41.05
-44.85
-47.52
-50.21
-53.30
-56.28
-58.31
-58.75
-57.48
-54.62
-50.12
-43.49
-34.08
-21.62
-6.67
9.36
24.81
38.61
50.74
62.13
73.75
85.93
97.80
107.69
113.88
115.50
113.11
108.39
103.46
99.95
98.41
98.27
98.29
97.09
93.47
86.50
75.54
60.37
41.44
19.93
-2.48
-24.30
-44.66
-63.73
-82.15
-100.37
-117.74
-132.28
-141.18
-141.92
-133.40
-116.59
-94.38
-70.73
-49.40
-32.91
-21.94
-15.64
-12.32
-10.52
-9.49
-9.07
-9.21
-9.44
-8.89
-6.74
-2.96
1.28
3.87
2.65
-3.66
-15.01
-30.13
-47.35
-65.05
-81.90
-96.32
-106.01
-107.93
-98.92
-77.32
-44.52
-5.79
30.69
56.44
65.87
58.31
37.82
10.58
-18.36
-47.21
-76.95
-108.96
-142.34
-172.86
-194.46
-202.49
-196.21
-179.33
-157.88
-137.08
-119.02
-102.64
-85.46
-65.52
-42.36
-16.50
11.22
39.72
67.09
89.69
102.31
100.01
81.05
48.71
11.07
-22.22
-44.09
-52.69
-51.03
-43.97
-34.77
-23.56
-8.29
12.97
39.92
70.00
99.90
127.32
151.65
173.21
191.62
204.71
208.84
200.59
178.51
144.13
101.54
56.35
14.30
-20.40
-45.97
-63.20
-74.63
-83.19
-90.65
-97.28
-102.28
-104.68
-104.24
-101.44
-96.82
-90.23
-80.66
-66.95
-48.89
-27.84
-6.29
13.33
30.10
45.17
61.09
80.03
101.82
122.93
136.70
135.34
112.78
67.67
4.95
-64.56
-126.77
-168.41
-180.98
-163.33
-121.46
-65.98
-8.85
39.97
74.14
91.23
92.19
80.55
62.15
44.40
34.49
36.70
49.97
67.52
79.45
77.62
59.81
31.12
1.61
-18.71
-24.02
-13.89
8.56
39.80
77.64
120.52
165.29
205.68
233.06
239.66
222.41
184.70
135.43
85.83
45.32
19.07
7.29
6.45
11.42
17.22
20.20
18.48
11.90
1.55
-10.81
-23.41
-34.84
-44.03
-50.39
-53.56
-53.43
-50.19
-44.51
-37.57
-30.96
-26.21
-24.18
-24.80
-27.22
-30.13
-32.43
-33.48
-33.13
-31.48
-28.65
-24.73
-19.94
-14.88
-10.56
-8.07
-8.16
-10.81
-15.13
-19.78
-23.43
-25.37
-25.62
-24.70
-23.31
-21.88
-20.57
-19.30
-17.98
-16.60
-15.32
-14.43
-14.37
-15.71
-19.11
-25.06
-33.55
-43.79
-54.13
-62.33
-66.12
-63.86
-55.12
-40.90
-23.49
-5.97
8.41
16.84
17.36
9.24
-6.78
-28.40
-52.03
-73.51
-89.21
-97.04
-96.88
-90.23
-79.25
-65.67
-50.35
-33.65
-16.32
-0.10
12.53
19.53
20.46
16.98
12.13
8.73
8.00
9.15
10.28
9.80
7.53
4.70
2.92
3.04
4.54
5.95
5.95
4.26
1.79
-0.06
-0.28
1.08
3.13
4.63
4.72
3.25
0.59
-2.61
-5.75
-8.30
-9.89
-10.33
-9.70
-8.50
-7.47
-7.35
-8.48
-10.60
-12.86
-14.28
-14.08
-12.03
-8.44
-3.94
0.82
5.44
9.83
14.14
18.53
23.05
27.48
31.45
34.70
37.11
38.90
40.39
41.88
43.48
44.99
46.05
46.24
45.26
42.95
39.37
34.73
29.43
23.98
18.93
14.67
11.27
8.34
5.04
0.29
-6.83
-16.59
-28.38
-40.81
-52.17
-61.17
-67.54
-72.11
-76.44
-81.94
-89.10
-97.08
-103.99
-107.71
-106.94
-101.86
-94.10
-86.07
-79.96
-76.86
-76.38
-76.80
-75.53
-69.87
-57.75
-38.45
-13.26
14.39
39.34
56.02
60.08
49.97
27.72
-1.61
-31.31
-55.05
-68.51
-70.38
-62.34
-48.15
-32.41
-19.14
-10.81
-8.06
-10.04
-15.02
-21.19
-27.01
-31.31
-33.32
-32.75
-30.05
-26.44
-23.64
-23.28
-26.22
-32.27
-40.34
-49.03
-57.18
-64.21
-70.01
-74.55
-77.54
-78.27
-75.83
-69.54
-59.32
-45.87
-30.48
-14.53
0.98
15.90
31.04
47.92
68.17
92.65
120.64
149.52
175.28
193.69
201.86
199.34
188.19
171.98
154.11
136.56
119.46
101.93
83.30
64.26
46.98
34.12
27.48
26.86
29.88
32.90
32.52
26.96
16.81
4.54
-6.65
-14.09
-16.40
-13.61
-6.72
2.75
13.21
23.34
32.27
39.75
46.16
52.13
57.92
62.78
64.62
60.66
48.89
29.75
7.07
-12.50
-21.62
-15.09
7.83
42.65
80.96
113.16
131.36
131.64
114.71
84.96
48.76
12.65
-18.30
-41.00
-54.47
-59.08
-55.69
-45.21
-28.54
-6.79
18.62
46.16
74.39
101.84
126.28
144.24
151.14
142.65
116.87
76.22
27.55
-19.93
-58.03
-82.39
-93.46
-95.26
-92.71
-89.36
-86.41
-83.31
-78.93
-72.68
-64.66
-55.29
-44.79
-33.01
-19.75
-5.37
8.95
21.32
29.94
33.99
34.07
31.94
29.55
27.79
25.85
21.57
12.61
-2.07
-21.38
-42.33
-61.31
-75.34
-82.62
-81.91
-71.71
-50.31
-16.93
26.41
73.90
116.76
146.07
155.87
145.16
117.46
78.56
34.38
-9.84
-48.68
-75.48
-83.15
-67.04
-28.83
21.79
69.21
97.71
97.87
70.38
25.30
-22.84
-61.03
-82.15
-85.82
-76.31
-59.49
-40.58
-23.37
-10.38
-3.13
-2.04
-6.07
-12.81
-19.09
-22.01
-19.82
-12.45
-1.30
11.30
22.83
31.28
35.62
35.92
33.28
29.40
25.96
24.01
23.62
23.88
23.38
20.85
15.77
8.62
0.66
-6.61
-12.00
-15.03
-15.99
-15.69
-15.15
-15.17
-16.22
-18.34
-21.24
-24.43
-27.39
-29.70
-31.08
-31.46
-30.88
-29.43
-27.26
-24.52
-21.47
-18.35
-15.45
-12.91
-10.74
-8.78
-6.80
-4.63
-2.23
0.28
2.69
4.81
6.56
7.97
9.13
10.20
11.20
12.17
13.04
13.79
14.37
14.74
14.85
14.66
14.09
13.15
11.89
10.40
8.81
7.19
5.59
4.05
2.65
1.40
0.34
-0.66
-1.79
-3.31
-5.38
-8.03
-11.02
-14.00
-16.53
-18.24
-18.90
-18.39
-16.70
-13.93
-10.33
-6.22
-2.03
1.86
5.19
7.84
9.86
11.39
12.64
13.71
14.67
15.46
16.07
16.44
16.54
16.41
16.10
15.68
15.24
14.88
14.65
14.58
14.58
14.49
14.13
13.30
11.94
10.15
8.14
6.18
4.44
2.98
1.68
0.36
-1.14
-2.82
-4.57
-6.22
-7.59
-8.67
-9.61
-10.67
-12.10
-14.09
-16.59
-19.40
-22.14
-24.40
-25.83
-26.18
-25.39
-23.49
-20.63
-17.05
-13.00
-8.82
-4.83
-1.28
1.72
4.18
6.28
8.20
10.08
11.90
13.58
14.96
15.96
16.60
16.99
17.31
17.65
18.01
18.27
18.29
17.98
17.38
16.55
15.61
14.59
13.44
12.14
10.68
9.16
7.70
6.43
5.35
4.34
3.21
1.80
0.06
-1.92
-3.91
-5.67
-7.06
-8.13
-9.08
-10.21
-11.77
-13.88
-16.44
-19.21
-21.84
-24.03
-25.48
-25.99
-25.44
-23.83
-21.26
-17.98
-14.27
-10.43
-6.68
-3.20
-0.09
2.55
4.66
6.24
7.36
8.17
8.78
9.31
9.79
10.22
10.59
10.92
11.20
11.44
11.62
11.67
11.56
11.23
10.67
9.86
8.78
7.48
5.97
4.33
2.63
0.96
-0.60
-1.96
-3.09
-4.05
-5.00
-6.20
-7.87
-10.12
-12.84
-15.70
-18.30
-20.19
-21.07
-20.80
-19.40
-17.05
-13.98
-10.51
-6.93
-3.52
-0.53
1.89
3.68
4.91
5.75
6.44
7.14
7.95
8.83
9.71
10.47
11.10
11.60
12.03
12.35
12.47
12.30
11.81
11.05
10.09
8.99
7.70
6.14
4.27
2.11
-0.17
-2.40
-4.41
-6.15
-7.70
-9.15
-10.62
-12.15
-13.81
-15.63
-17.64
-19.85
-22.07
-24.02
-25.36
-25.81
-25.28
-23.87
-21.78
-19.20
-16.29
-13.12
-9.79
-6.46
-3.33
-0.53
1.94
4.18
6.36
8.51
10.58
12.37
13.77
14.76
15.47
16.11
16.79
17.49
18.08
18.46
18.60
18.59
18.53
18.45
18.20
17.64
16.69
15.43
14.15
13.11
12.48
12.14
11.75
10.89
9.32
7.10
4.62
2.42
0.92
0.20
-0.04
-0.32
-1.01
-2.09
-3.08
-3.18
-1.67
1.81
7.18
13.95
21.27
27.89
32.14
32.05
26.01
13.46
-4.39
-24.65
-43.45
-57.22
-63.86
-63.21
-56.80
-47.01
-36.21
-26.23
-18.27
-13.01
-10.74
-11.38
-14.48
-19.33
-25.21
-31.66
-38.62
-46.45
-55.64
-66.40
-78.13
-89.30
-97.67
-101.15
-98.77
-91.19
-80.68
-70.13
-61.79
-56.28
-52.32
-47.27
-38.15
-22.65
0.09
29.34
62.85
97.28
128.70
153.19
167.56
170.00
160.47
140.70
113.76
83.38
53.13
25.79
3.06
-14.54
-27.29
-35.82
-40.71
-42.28
-40.70
-36.14
-29.07
-20.23
-10.62
-1.22
7.14
13.89
18.81
21.97
23.70
24.53
25.07
25.83
27.05
28.51
29.56
29.16
26.22
19.88
9.90
-3.06
-17.50
-31.36
-42.62
-50.03
-53.39
-53.67
-52.30
-50.59
-49.08
-47.50
-45.14
-41.36
-36.03
-29.59
-22.77
-16.26
-10.50
-5.69
-1.84
0.98
2.76
3.53
3.51
3.12
2.84
3.07
3.96
5.29
6.60
7.33
7.09
5.83
3.90
1.87
0.38
-0.23
-0.02
0.52
0.73
0.02
-1.74
-4.18
-6.60
-8.22
-8.67
-8.17
-7.52
-7.75
-9.66
-13.31
-17.93
-22.04
-24.03
-22.69
-17.87
-10.61
-3.04
2.22
2.87
-2.07
-11.63
-22.86
-31.43
-32.90
-24.11
-4.23
25.13
60.60
98.17
134.16
165.64
190.36
206.49
212.66
208.25
193.95
171.91
145.51
118.71
94.95
76.31
62.97
53.17
43.59
30.41
10.73
-15.87
-46.44
-74.83
-93.17
-94.47
-75.12
-36.60
14.55
68.57
115.28
147.10
160.85
157.82
142.29
119.13
91.76
61.19
26.67
-12.56
-55.47
-98.59
-136.94
-166.29
-185.04
-194.61
-198.32
-199.02
-197.24
-190.89
-176.67
-152.22
-117.78
-76.39
-32.74
8.29
42.88
68.65
84.39
90.03
86.74
77.49
66.83
60.26
62.23
74.36
94.20
115.95
132.64
138.93
132.94
116.45
93.37
67.70
42.41
19.50
0.91
-10.70
-12.73
-4.22
12.67
32.51
48.17
53.57
46.06
27.39
2.96
-20.27
-36.22
-41.78
-37.84
-28.84
-20.90
-19.36
-26.81
-42.41
-62.89
-84.41
-104.22
-121.05
-134.41
-143.44
-146.67
-142.42
-129.92
-110.33
-86.73
-63.36
-44.47
-33.01
-29.86
-33.65
-41.12
-48.12
-50.99
-47.59
-37.92
-23.65
-7.17
9.51
25.45
40.63
55.41
69.84
83.46
95.45
104.97
111.35
114.12
112.87
107.33
97.87
85.94
74.36
66.68
65.92
73.21
86.82
102.55
115.25
120.74
117.05
104.68
85.56
61.99
36.05
9.53
-15.61
-37.28
-53.78
-64.53
-70.51
-73.78
-76.44
-79.73
-83.67
-87.32
-89.31
-88.30
-83.11
-72.86
-57.27
-37.04
-14.06
8.93
29.04
43.94
52.40
54.26
50.21
41.52
29.88
17.15
5.11
-5.06
-13.12
-19.55
-25.04
-29.98
-34.21
-37.57
-40.55
-44.46
-51.10
-61.83
-76.56
-93.43
-109.18
-120.30
-124.49
-121.68
-114.22
-105.95
-100.35
-98.90
-100.37
-101.44
-98.40
-89.03
-73.72
-55.08
-36.77
-21.85
-11.72
-6.05
-3.44
-2.30
-1.58
-0.87
-0.29
-0.12
-0.47
-1.18
-1.94
-2.57
-3.39
-5.22
-9.16
-15.84
-24.85
-34.58
-42.64
-46.85
-46.17
-41.31
-34.43
-28.24
-24.84
-24.88
-27.62
-31.49
-34.77
-36.01
-34.02
-27.69
-16.08
1.08
22.90
47.10
70.42
89.49
101.82
106.40
103.86
95.97
85.13
73.63
63.07
54.02
46.06
38.18
29.48
19.78
9.66
0.03
-8.42
-15.53
-21.33
-25.46
-27.10
-25.57
-21.24
-16.11
-13.16
-14.87
-21.62
-31.00
-38.91
-41.56
-37.38
-27.68
-15.63
-4.34
4.79
12.49
20.75
31.20
43.87
56.89
67.34
72.79
72.50
67.91
61.97
57.75
56.96
59.26
62.59
64.31
62.41
56.15
45.93
32.77
17.81
2.21
-12.68
-25.29
-34.19
-38.65
-39.16
-37.30
-35.03
-33.75
-33.58
-33.42
-31.60
-27.00
-19.70
-11.19
-3.71
0.56
0.30
-4.58
-13.08
-23.67
-34.84
-45.52
-54.96
-62.47
-67.17
-68.13
-64.67
-56.96
-46.22
-34.52
-24.06
-16.37
-11.87
-9.99
-9.85
-10.79
-12.64
-15.55
-19.38
-23.45
-26.63
-27.83
-26.49
-22.80
-17.44
-11.21
-4.75
1.60
7.61
12.99
17.39
20.46
21.97
21.92
20.47
18.02
15.13
12.56
11.12
11.43
13.70
17.67
22.78
28.32
33.65
38.25
41.63
43.37
43.25
41.41
38.29
34.56
30.81
27.45
24.62
22.21
19.84
16.73
11.66
3.34
-8.87
-24.24
-40.42
-54.03
-61.86
-62.11
-54.96
-42.35
-26.98
-11.61
1.43
10.32
13.65
10.65
1.61
-12.00
-27.71
-42.71
-54.58
-61.97
-64.73
-63.81
-61.01
-58.62
-58.95
-63.80
-73.92
-88.65
-106.03
-123.20
-137.07
-144.90
-144.71
-135.70
-118.54
-95.57
-70.49
-47.46
-29.93
-19.51
-15.40
-14.97
-14.91
-12.72
-7.67
-0.90
5.47
9.59
10.99
10.90
11.70
15.63
23.65
34.83
46.80
56.79
62.86
64.66
63.36
61.15
60.60
64.28
74.44
92.55
118.62
150.46
183.80
213.24
233.90
242.88
239.71
225.80
203.30
174.37
141.13
106.10
72.44
43.49
21.59
6.89
-2.93
-11.79
-23.35
-39.33
-58.73
-78.41
-94.50
-103.93
-105.54
-100.20
-90.34
-79.28
-70.45
-66.68
-69.54
-78.51
-90.46
-100.13
-101.64
-90.80
-67.21
-34.85
-0.75
27.72
45.66
52.22
50.16
43.99
37.64
33.05
30.09
27.43
23.84
18.88
12.95
6.74
0.65
-5.41
-11.89
-19.12
-26.95
-34.71
-41.46
-46.39
-49.23
-50.39
-50.84
-51.76
-54.13
-58.42
-64.30
-70.75
-76.33
-79.81
-80.70
-79.30
-76.32
-72.01
-65.63
-55.64
-40.65
-20.62
2.55
25.29
43.60
54.38
56.39
50.19
37.64
21.19
3.50
-12.73
-25.03
-31.60
-31.81
-26.42
-17.15
-5.88
6.10
18.42
31.22
44.61
58.19
70.93
81.43
88.42
91.23
90.01
85.84
80.45
75.75
73.20
73.33
75.53
78.37
80.21
79.91
77.27
73.03
68.47
65.01
63.65
64.61
67.03
68.94
67.65
60.62
46.66
26.86
4.55
-15.68
-29.58
-34.61
-30.52
-19.26
-4.21
10.66
21.58
25.88
22.90
14.48
4.54
-2.45
-3.75
0.15
5.41
6.87
0.75
-13.21
-31.54
-48.95
-61.01
-66.08
-65.47
-62.01
-58.01
-54.06
-49.03
-41.39
-30.75
-18.71
-8.56
-3.98
-7.58
-19.70
-38.19
-59.07
-77.62
-89.58
-91.93
-83.44
-64.90
-38.88
-9.19
20.01
45.10
63.97
76.17
82.65
84.91
84.07
80.19
72.36
59.45
41.09
18.22
-7.02
-32.06
-54.91
-74.62
-91.22
-104.98
-115.63
-122.06
-122.64
-116.15
-102.59
-83.36
-60.77
-37.12
-14.04
7.69
27.84
46.36
63.14
78.19
91.72
103.90
114.57
122.71
126.60
124.64
116.46
103.64
89.30
76.67
67.52
61.32
55.81
48.76
39.51
29.67
22.16
19.59
22.61
29.47
36.70
40.64
38.78
30.39
16.51
-0.76
-18.88
-35.50
-48.80
-57.73
-62.07
-62.42
-59.90
-55.74
-50.98
-46.18
-41.56
-37.22
-33.43
-30.64
-29.44
-30.25
-32.99
-37.10
-41.65
-45.76
-48.97
-51.50
-54.17
-57.86
-62.85
-68.24
-71.92
-71.18
-63.79
-49.20
-29.07
-6.86
13.21
27.50
34.04
32.68
24.66
11.77
-4.02
-20.54
-35.23
-45.22
-48.06
-42.76
-30.42
-14.24
1.71
13.89
20.45
21.30
17.34
9.43
-2.28
-17.85
-36.34
-54.72
-67.86
-70.13
-57.98
-32.19
1.62
34.84
59.07
69.49
66.29
53.73
37.47
21.77
8.19
-3.91
-15.62
-26.96
-36.55
-42.46
-43.47
-39.87
-33.19
-25.47
-18.46
-13.16
-9.86
-8.27
-7.71
-7.13
-5.28
-1.04
6.07
15.50
25.72
34.66
40.69
43.26
43.22
42.32
42.51
45.04
49.99
56.49
63.07
68.20
70.41
68.23
60.36
46.31
27.25
6.50
-11.14
-21.02
-20.79
-11.57
2.38
15.68
24.20
26.83
25.77
25.45
30.47
43.56
64.17
88.40
109.76
121.23
117.85
98.83
68.37
34.09
4.06
-16.39
-26.49
-29.33
-29.55
-30.60
-33.24
-36.04
-37.07
-35.69
-33.12
-31.68
-33.27
-38.05
-44.31
-49.48
-51.50
-49.77
-45.23
-39.59
-34.46
-30.78
-28.81
-28.70
-30.81
-35.72
-43.51
-53.11
-61.96
-66.56
-63.75
-52.24
-33.61
-12.06
6.97
19.03
22.48
19.05
12.87
8.27
7.63
10.10
12.08
8.89
-2.96
-24.23
-52.56
-83.14
-109.89
-126.45
-127.25
-108.64
-70.25
-16.23
44.49
99.65
136.99
148.36
132.77
96.71
51.51
8.96
-22.81
-41.09
-47.67
-46.22
-39.74
-29.45
-15.46
1.68
19.61
34.16
40.72
36.37
21.69
0.96
-19.14
-32.03
-33.64
-23.76
-5.75
15.21
34.46
49.43
59.97
67.50
73.75
79.80
86.02
92.51
99.50
107.18
114.93
120.72
121.13
112.48
92.61
62.25
25.19
-12.89
-46.46
-71.89
-88.17
-96.42
-98.64
-96.65
-91.60
-84.23
-75.40
-66.25
-57.98
-51.41
-46.58
-43.03
-40.12
-37.50
-35.29
-33.77
-32.95
-32.32
-30.98
-27.90
-22.50
-14.85
-5.57
4.61
15.35
26.84
39.61
53.92
69.08
83.13
92.98
95.23
87.25
68.29
40.15
6.94
-26.04
-53.85
-73.51
-84.60
-88.88
-89.28
-88.43
-87.88
-87.97
-88.17
-87.64
-85.66
-81.50
-74.46
-63.91
-49.65
-32.45
-14.28
2.06
13.79
19.20
18.30
12.74
5.06
-2.16
-6.92
-8.05
-5.21
1.16
9.78
18.65
25.44
28.19
25.98
19.27
9.65
-0.83
-10.58
-18.78
-25.26
-29.84
-31.94
-30.62
-25.21
-16.04
-4.67
6.37
14.51
17.94
16.19
9.99
0.85
-9.53
-19.64
-28.41
-35.25
-40.11
-43.58
-46.75
-50.82
-56.48
-63.31
-69.78
-73.98
-74.65
-72.09
-68.03
-64.70
-63.31
-63.01
-60.98
-53.59
-38.10
-13.83
17.62
53.01
88.48
120.44
146.08
163.74
173.13
175.58
173.86
171.51
171.44
174.66
179.66
182.89
180.19
168.39
146.56
116.19
80.56
43.49
8.24
-22.98
-49.00
-69.23
-83.28
-91.13
-93.43
-91.67
-87.98
-84.41
-82.25
-81.82
-82.68
-84.08
-85.20
-85.20
-83.18
-78.29
-70.20
-59.27
-46.43
-32.52
-17.68
-1.45
16.27
33.98
48.14
54.07
48.21
30.39
4.77
-21.35
-40.44
-47.61
-42.44
-28.56
-11.83
2.08
9.62
10.00
4.77
-3.42
-12.08
-19.53
-24.88
-27.80
-28.50
-27.94
-28.07
-31.22
-38.93
-50.49
-62.13
-68.07
-63.11
-45.53
-18.67
10.30
34.07
49.16
57.78
66.02
79.62
99.75
121.56
136.48
136.58
118.60
85.21
43.25
0.50
-36.93
-65.84
-85.41
-96.32
-100.47
-100.90
-101.68
-106.78
-118.23
-134.39
-149.64
-156.46
-148.81
-125.37
-90.51
-52.63
-20.48
0.33
8.84
7.81
1.20
-8.21
-19.72
-33.72
-49.70
-65.06
-75.25
-75.38
-62.28
-36.03
-0.09
39.57
76.21
104.19
120.14
123.20
113.90
93.06
61.19
19.33
-29.51
-79.23
-121.21
-146.90
-151.12
-134.34
-102.59
-64.78
-29.05
0.11
22.56
41.20
59.29
78.45
97.71
114.03
124.14
126.15
120.46
109.48
96.37
83.83
74.00
68.93
70.86
81.37
99.60
121.03
137.92
142.31
129.89
102.91
69.72
41.47
27.41
31.39
51.07
79.93
110.37
136.21
153.66
161.00
157.53
143.04
117.40
81.60
38.45
-6.76
-47.04
-75.61
-88.16
-83.99
-65.27
-35.22
3.65
49.56
99.94
149.67
190.80
214.81
216.04
194.31
154.96
106.56
57.55
14.21
-19.83
-42.91
-55.00
-58.19
-57.45
-60.29
-74.83
-106.32
-154.16
-211.18
-265.89
-306.51
-325.47
-321.80
-300.60
-270.19
-238.57
-210.79
-188.40
-170.63
-156.14
-144.36
-135.52
-129.77
-126.29
-122.95
-117.03
-106.25
-89.59
-67.46
-41.40
-13.41
14.45
40.19
62.02
78.56
89.20
94.44
95.77
95.21
94.48
94.48
95.10
95.70
95.62
94.59
92.54
89.34
84.50
77.27
67.14
54.33
39.99
25.92
13.87
5.00
-0.52
-3.34
-4.49
-4.92
-5.16
-5.28
-5.02
-3.97
-1.80
1.66
6.29
11.74
17.42
22.72
27.16
30.56
33.04
34.95
36.64
38.28
39.87
41.26
42.31
42.95
43.23
43.25
43.03
42.52
41.60
40.14
38.11
35.59
32.74
29.76
26.83
24.02
21.36
18.80
16.25
13.65
10.92
8.01
4.85
1.40
-2.39
-6.51
-10.84
-15.15
-19.06
-22.17
-24.15
-24.79
-24.11
-22.24
-19.43
-15.88
-11.79
-7.31
-2.59
2.14
6.58
10.50
13.71
16.22
18.13
19.66
21.01
22.32
23.59
24.75
25.68
26.27
26.49
26.34
25.86
25.00
23.71
21.93
19.72
17.23
14.68
12.22
9.86
7.49
4.92
2.05
-1.16
-4.61
-8.14
-11.61
-14.91
-17.89
-20.36
-22.10
-22.92
-22.78
-21.82
-20.22
-18.15
-15.63
-12.54
-8.79
-4.40
0.36
5.06
9.18
12.38
14.62
16.14
17.26
18.27
19.25
20.08
20.62
20.80
20.65
20.27
19.77
19.16
18.34
17.22
15.75
13.97
11.99
9.88
7.66
5.25
2.59
-0.35
-3.54
-6.95
-10.61
-14.61
-19.03
-23.85
-28.88
-33.69
-37.77
-40.54
-41.61
-40.83
-38.31
-34.34
-29.27
-23.41
-16.95
-10.04
-2.87
4.30
11.07
17.04
21.88
25.50
28.07
29.92
31.41
32.78
34.13
35.43
36.59
37.50
37.98
37.82
36.79
34.84
32.11
28.99
25.91
23.16
20.75
18.40
15.79
12.74
9.31
5.78
2.42
-0.67
-3.63
-6.74
-10.27
-14.27
-18.65
-23.13
-27.43
-31.26
-34.36
-36.42
-37.15
-36.29
-33.72
-29.55
-24.05
-17.62
-10.66
-3.45
3.75
10.69
17.09
22.65
27.16
30.51
32.82
34.31
35.23
35.77
36.09
36.29
36.42
36.50
36.46
36.20
35.58
34.53
33.10
31.38
29.49
27.50
25.42
23.18
20.77
18.18
15.41
12.47
9.34
6.02
2.51
-1.09
-4.75
-8.45
-12.27
-16.35
-20.79
-25.54
-30.33
-34.69
-38.00
-39.70
-39.45
-37.17
-33.08
-27.60
-21.23
-14.41
-7.46
-0.65
5.76
11.48
16.21
19.75
22.11
23.57
24.53
25.40
26.41
27.48
28.36
28.80
28.67
28.05
27.17
26.23
25.31
24.36
23.25
21.87
20.09
17.82
14.93
11.37
7.24
2.75
-1.74
-5.90
-9.57
-12.81
-15.84
-18.91
-22.15
-25.54
-28.88
-31.83
-33.99
-35.00
-34.54
-32.45
-28.78
-23.77
-17.80
-11.32
-4.78
1.46
7.05
11.75
15.40
17.98
19.61
20.56
21.16
21.67
22.28
22.97
23.63
24.05
24.05
23.57
22.67
21.49
20.19
18.84
17.37
15.65
13.54
10.96
7.95
4.62
1.15
-2.32
-5.71
-9.04
-12.34
-15.74
-19.39
-23.43
-27.90
-32.76
-37.74
-42.42
-46.22
-48.55
-48.95
-47.21
-43.46
-38.12
-31.77
-24.97
-18.13
-11.44
-4.97
1.24
7.00
12.06
16.14
19.12
21.09
22.33
23.19
23.92
24.63
25.26
25.69
25.86
25.78
25.53
25.17
24.71
24.13
23.37
22.35
21.00
19.23
16.94
14.11
10.82
7.27
3.72
0.40
-2.54
-5.13
-7.51
-9.92
-12.63
-15.92
-20.05
-25.14
-31.13
-37.60
-43.83
-48.93
-52.04
-52.64
-50.67
-46.50
-40.73
-33.96
-26.61
-18.92
-11.03
-3.13
4.46
11.37
17.26
21.99
25.64
28.47
30.74
32.63
34.15
35.24
35.81
35.87
35.55
35.05
34.52
33.99
33.31
32.29
30.73
28.61
26.11
23.51
21.04
18.77
16.60
14.26
11.58
8.51
5.18
1.80
-1.46
-4.55
-7.56
-10.63
-13.86
-17.33
-21.08
-25.11
-29.40
-33.74
-37.76
-40.91
-42.58
-42.32
-39.99
-35.83
-30.32
-24.01
-17.39
-10.76
-4.24
2.09
8.10
13.64
18.50
22.54
25.71
28.10
29.95
31.47
32.84
34.08
35.10
35.75
35.95
35.71
35.13
34.33
33.31
31.94
30.06
27.58
24.60
21.39
18.32
15.64
13.40
11.42
9.36
6.91
3.93
0.47
-3.18
-6.72
-9.90
-12.64
-15.05
-17.39
-20.01
-23.22
-27.17
-31.76
-36.53
-40.75
-43.57
-44.29
-42.61
-38.72
-33.13
-26.55
-19.61
-12.75
-6.25
-0.35
4.72
8.74
11.65
13.59
14.88
15.92
17.00
18.23
19.50
20.63
21.39
21.64
21.31
20.45
19.16
17.60
15.91
14.19
12.43
10.51
8.29
5.67
2.69
-0.49
-3.64
-6.58
-9.25
-11.81
-14.53
-17.66
-21.40
-25.74
-30.48
-35.19
-39.35
-42.38
-43.78
-43.26
-40.78
-36.53
-30.88
-24.26
-17.12
-9.83
-2.76
3.73
9.37
13.93
17.39
19.86
21.54
22.72
23.60
24.35
25.03
25.62
25.99
26.03
25.62
24.74
23.46
21.92
20.25
18.50
16.64
14.55
12.10
9.23
5.92
2.29
-1.49
-5.26
-8.90
-12.35
-15.67
-18.99
-22.46
-26.23
-30.39
-34.97
-39.81
-44.62
-48.93
-52.12
-53.60
-52.97
-50.12
-45.30
-39.04
-31.92
-24.46
-17.03
-9.81
-2.92
3.57
9.54
14.85
19.40
23.11
26.04
28.28
29.98
31.27
32.18
32.76
33.02
33.04
32.94
32.78
32.53
32.02
31.03
29.39
27.13
24.47
21.75
19.20
16.86
14.58
12.12
9.32
6.13
2.68
-0.87
-4.42
-7.96
-11.53
-15.16
-18.91
-22.81
-26.94
-31.35
-36.00
-40.63
-44.70
-47.51
-48.36
-46.86
-43.02
-37.27
-30.31
-22.82
-15.36
-8.18
-1.42
4.87
10.52
15.30
19.01
21.59
23.18
24.14
24.87
25.58
26.33
26.95
27.21
26.96
26.20
25.06
23.70
22.26
20.77
19.22
17.58
15.77
13.72
11.38
8.72
5.78
2.72
-0.29
-3.11
-5.75
-8.32
-11.02
-14.01
-17.36
-21.07
-25.06
-29.18
-33.16
-36.57
-38.84
-39.40
-37.88
-34.22
-28.77
-22.18
-15.15
-8.31
-2.08
3.33
7.82
11.34
13.91
15.63
16.70
17.38
17.88
18.33
18.71
18.88
18.63
17.90
16.73
15.32
13.88
12.52
11.20
9.71
7.83
5.40
2.44
-0.83
-4.18
-7.36
-10.27
-12.97
-15.61
-18.39
-21.46
-24.95
-28.86
-33.07
-37.33
-41.23
-44.27
-45.94
-45.81
-43.67
-39.59
-33.95
-27.32
-20.29
-13.35
-6.73
-0.43
5.62
11.45
16.86
21.56
25.23
27.75
29.25
30.09
30.64
31.16
31.68
32.07
32.14
31.74
30.82
29.42
27.61
25.47
23.04
20.40
17.64
14.85
12.10
9.41
6.72
3.91
0.87
-2.48
-6.12
-9.91
-13.70
-17.38
-21.00
-24.75
-28.92
-33.67
-38.95
-44.32
-49.07
-52.33
-53.39
-51.85
-47.78
-41.70
-34.34
-26.43
-18.49
-10.73
-3.20
4.11
11.06
17.37
22.68
26.74
29.55
31.35
32.51
33.37
34.09
34.63
34.85
34.60
33.87
32.75
31.34
29.78
28.09
26.22
24.06
21.53
18.60
15.37
11.96
8.50
5.08
1.71
-1.62
-4.91
-8.10
-11.16
-14.10
-17.10
-20.40
-24.22
-28.59
-33.16
-37.26
-40.05
-40.75
-38.95
-34.71
-28.49
-20.99
-12.94
-4.99
2.35
8.64
13.57
16.98
18.91
19.65
19.67
19.46
19.41
19.71
20.34
21.11
21.79
22.13
21.97
21.22
19.90
18.14
16.09
13.89
11.56
9.06
6.30
3.22
-0.11
-3.53
-6.84
-9.89
-12.68
-15.36
-18.17
-21.39
-25.20
-29.67
-34.67
-39.88
-44.79
-48.76
-51.06
-51.13
-48.68
-43.84
-37.12
-29.26
-20.98
-12.81
-5.00
2.33
9.15
15.33
20.65
24.94
28.08
30.14
31.34
32.01
32.39
32.65
32.81
32.80
32.55
32.05
31.39
30.63
29.81
28.83
27.51
25.68
23.28
20.43
17.37
14.41
11.71
9.28
6.88
4.25
1.13
-2.50
-6.52
-10.63
-14.56
-18.16
-21.47
-24.74
-28.29
-32.43
-37.31
-42.85
-48.63
-53.94
-57.90
-59.67
-58.69
-54.87
-48.60
-40.64
-31.83
-22.89
-14.24
-6.10
1.47
8.42
14.67
20.14
24.77
28.57
31.58
33.88
35.51
36.54
37.03
37.07
36.73
36.09
35.19
34.06
32.74
31.25
29.58
27.71
25.63
23.36
20.98
18.61
16.38
14.30
12.29
10.14
7.68
4.77
1.48
-2.04
-5.58
-8.97
-12.21
-15.38
-18.70
-22.41
-26.67
-31.48
-36.58
-41.45
-45.37
-47.54
-47.30
-44.35
-38.86
-31.44
-23.01
-14.48
-6.52
0.50
6.52
11.62
15.92
19.44
22.18
24.10
25.25
25.80
25.97
26.00
26.02
26.09
26.15
26.11
25.86
25.35
24.54
23.42
21.93
20.06
17.81
15.20
12.32
9.28
6.19
3.10
0.09
-2.84
-5.68
-8.44
-11.21
-14.07
-17.11
-20.40
-24.00
-27.94
-32.27
-36.99
-42.00
-47.03
-51.54
-54.83
-56.15
-54.93
-51.01
-44.66
-36.55
-27.51
-18.32
-9.52
-1.38
5.99
12.54
18.18
22.77
26.22
28.59
30.14
31.26
32.31
33.46
34.65
35.63
36.10
35.88
35.02
33.71
32.24
30.79
29.40
27.97
26.31
24.30
21.88
19.17
16.36
13.68
11.32
9.27
7.36
5.27
2.67
-0.66
-4.71
-9.22
-13.79
-18.06
-21.87
-25.29
-28.62
-32.18
-36.21
-40.79
-45.85
-51.15
-56.30
-60.68
-63.53
-64.07
-61.73
-56.43
-48.63
-39.28
-29.44
-19.98
-11.39
-3.71
3.23
9.62
15.50
20.76
25.26
28.94
31.82
34.05
35.75
37.00
37.78
38.05
37.80
37.15
36.22
35.15
34.03
32.87
31.62
30.22
28.62
26.77
24.63
22.19
19.46
16.57
13.66
10.88
8.28
5.81
3.33
0.65
-2.35
-5.74
-9.44
-13.35
-17.29
-21.09
-24.66
-28.00
-31.18
-34.31
-37.55
-40.95
-44.49
-47.94
-50.95
-52.97
-53.40
-51.73
-47.72
-41.55
-33.78
-25.24
-16.73
-8.83
-1.80
4.35
9.70
14.33
18.17
21.18
23.36
24.86
25.88
26.64
27.23
27.62
27.71
27.41
26.72
25.74
24.61
23.48
22.43
21.44
20.42
19.25
17.82
16.07
13.99
11.64
9.12
6.53
3.93
1.29
-1.48
-4.51
-7.91
-11.73
-15.87
-20.08
-24.07
-27.62
-30.67
-33.41
-36.25
-39.62
-43.80
-48.76
-53.96
-58.51
-61.37
-61.70
-59.11
-53.79
-46.45
-38.01
-29.31
-20.90
-12.99
-5.56
1.45
8.00
13.98
19.21
23.55
27.00
29.61
31.52
32.84
33.64
33.97
33.86
33.37
32.67
31.89
31.21
30.68
30.22
29.65
28.70
27.19
25.05
22.42
19.56
16.71
14.07
11.58
9.09
6.35
3.18
-0.41
-4.27
-8.12
-11.71
-14.91
-17.73
-20.37
-23.17
-26.52
-30.79
-36.07
-42.05
-47.98
-52.75
-55.25
-54.74
-51.07
-44.76
-36.74
-28.04
-19.43
-11.33
-3.85
3.10
9.53
15.39
20.53
24.80
28.19
30.79
32.78
34.36
35.61
36.52
36.97
36.91
36.35
35.47
34.47
33.53
32.65
31.67
30.34
28.43
25.92
22.95
19.80
16.74
13.91
11.24
8.57
5.68
2.49
-0.99
-4.63
-8.22
-11.61
-14.72
-17.57
-20.33
-23.25
-26.67
-30.89
-35.96
-41.63
-47.18
-51.58
-53.74
-52.85
-48.73
-41.83
-33.13
-23.74
-14.61
-6.27
1.08
7.52
13.12
17.92
21.90
25.05
27.46
29.28
30.69
31.80
32.62
33.10
33.23
32.99
32.47
31.73
30.84
29.80
28.51
26.83
24.66
21.94
18.80
15.48
12.25
9.36
6.91
4.76
2.64
0.24
-2.60
-5.86
-9.32
-12.71
-15.92
-19.00
-22.16
-25.69
-29.88
-34.87
-40.55
-46.51
-52.02
-56.11
-57.82
-56.44
-51.80
-44.34
-34.98
-24.78
-14.71
-5.38
2.91
10.00
15.80
20.17
23.07
24.66
25.35
25.66
26.07
26.84
27.87
28.84
29.33
29.03
27.82
25.78
23.16
20.23
17.23
14.33
11.57
8.92
6.27
3.50
0.53
-2.66
-5.95
-9.21
-12.31
-15.27
-18.23
-21.43
-25.16
-29.63
-34.91
-40.77
-46.73
-51.99
-55.59
-56.60
-54.41
-48.96
-40.82
-31.02
-20.72
-10.86
-2.00
5.70
12.33
17.98
22.67
26.39
29.12
31.01
32.31
33.31
34.21
35.04
35.68
35.94
35.70
34.92
33.67
32.01
30.01
27.68
25.06
22.20
19.18
16.05
12.80
9.39
5.78
2.04
-1.69
-5.22
-8.42
-11.33
-14.12
-17.09
-20.54
-24.72
-29.66
-35.14
-40.64
-45.35
-48.33
-48.75
-46.13
-40.51
-32.46
-22.88
-12.82
-3.15
5.56
13.06
19.31
24.41
28.43
31.42
33.41
34.50
34.95
35.09
35.20
35.43
35.68
35.74
35.36
34.41
32.90
30.98
28.83
26.52
24.09
21.45
18.46
15.05
11.20
7.04
2.80
-1.28
-4.99
-8.29
-11.31
-14.31
-17.56
-21.30
-25.71
-30.82
-36.48
-42.20
-47.17
-50.34
-50.77
-47.96
-42.08
-33.96
-24.80
-15.71
-7.42
-0.18
6.08
11.45
15.91
19.27
21.40
22.35
22.37
21.90
21.32
20.85
20.50
20.11
19.54
18.72
17.67
16.43
15.04
13.38
11.27
8.52
5.05
0.94
-3.55
-8.06
-12.28
-16.04
-19.40
-22.61
-26.06
-30.10
-34.92
-40.35
-45.75
-50.14
-52.40
-51.61
-47.43
-40.20
-30.87
-20.67
-10.69
-1.64
6.24
12.99
18.77
23.59
27.33
29.87
31.16
31.44
31.09
30.56
30.15
29.92
29.66
29.05
27.85
26.03
23.81
21.45
19.17
16.94
14.60
11.84
8.43
4.34
-0.32
-5.25
-10.14
-14.72
-18.89
-22.71
-26.40
-30.32
-34.81
-40.14
-46.29
-52.96
-59.42
-64.64
-67.49
-67.09
-63.09
-55.74
-45.94
-34.81
-23.43
-12.52
-2.34
7.18
16.22
24.80
32.73
39.63
45.14
49.07
51.44
52.50
52.58
52.02
51.05
49.85
48.49
46.99
45.32
43.36
40.97
38.07
34.69
30.97
27.18
23.52
20.07
16.75
13.33
9.61
5.46
0.90
-3.87
-8.61
-13.05
-17.09
-20.76
-24.30
-28.09
-32.53
-37.86
-43.96
-50.25
-55.66
-58.93
-58.92
-55.10
-47.68
-37.60
-26.21
-14.82
-4.33
4.84
12.71
19.45
25.13
29.74
33.19
35.46
36.74
37.35
37.67
37.93
38.12
38.00
37.25
35.70
33.39
30.65
27.86
25.31
23.00
20.68
17.92
14.35
9.84
4.57
-0.97
-6.20
-10.67
-14.16
-16.85
-19.19
-21.80
-25.24
-29.82
-35.45
-41.66
-47.63
-52.37
-54.93
-54.56
-50.95
-44.33
-35.39
-25.10
-14.51
-4.42
4.70
12.70
19.56
25.26
29.70
32.79
34.53
35.17
35.12
34.84
34.62
34.48
34.18
33.39
31.90
29.67
26.91
23.91
20.86
17.81
14.59
10.95
6.67
1.77
-3.53
-8.84
-13.76
-18.02
-21.57
-24.67
-27.74
-31.25
-35.64
-41.12
-47.58
-54.44
-60.70
-65.10
-66.42
-63.95
-57.70
-48.43
-37.37
-25.77
-14.58
-4.20
5.34
14.16
22.31
29.57
35.64
40.32
43.59
45.71
47.02
47.82
48.20
48.08
47.34
45.94
44.02
41.85
39.72
37.72
35.72
33.44
30.55
26.94
22.71
18.18
13.75
9.75
6.28
3.19
0.18
-3.10
-6.86
-11.13
-15.73
-20.34
-24.66
-28.53
-31.99
-35.23
-38.63
-42.59
-47.47
-53.38
-60.01
-66.57
-71.85
-74.48
-73.39
-68.10
-58.99
-47.16
-34.10
-21.18
-9.34
1.09
10.22
18.41
25.85
32.49
38.07
42.33
45.21
46.93
47.93
48.61
49.20
49.60
49.55
48.82
47.38
45.48
43.53
41.84
40.49
39.20
37.55
35.10
31.70
27.52
23.03
18.74
15.07
12.18
9.94
8.01
5.99
3.54
0.43
-3.36
-7.66
-12.11
-16.35
-20.10
-23.31
-26.17
-29.11
-32.63
-37.14
-42.78
-49.26
-55.85
-61.43
-64.75
-64.74
-60.90
-53.47
-43.34
-31.82
-20.21
-9.46
-0.09
7.77
14.21
19.34
23.22
25.91
27.52
28.28
28.53
28.58
28.73
29.09
29.61
30.09
30.28
30.02
29.24
28.04
26.51
24.75
22.78
20.54
17.96
15.00
11.64
7.92
3.94
-0.22
-4.43
-8.55
-12.46
-16.09
-19.45
-22.60
-25.76
-29.16
-32.99
-37.34
-42.09
-46.78
-50.52
-52.11
-50.35
-44.53
-34.77
-22.05
-7.94
5.78
17.75
27.44
35.18
41.86
48.24
54.73
61.18
67.14
71.95
75.14
76.79
77.58
78.52
80.41
84.14
90.60
100.68
113.98
128.73
141.94
150.35
151.54
144.07
128.89
108.75
87.55
67.46
48.73
30.25
10.87
-9.91
-32.95
-58.09
-84.53
-110.38
-135.59
-161.08
-188.16
-217.17
-247.04
-276.62
-302.78
-321.07
-326.05
-316.11
-293.29
-262.32
-228.16
-184.57
-129.72
-65.41
-5.28
48.83
97.68
143.63
185.08
218.93
241.97
250.59
243.93
224.12
196.83
166.39
135.71
106.49
80.70
60.92
48.84
46.13
53.20
69.43
90.51
110.30
122.65
123.68
112.45
90.04
59.97
27.12
-2.87
-26.41
-41.88
-49.34
-49.39
-42.69
-30.43
-14.16
3.77
20.52
32.64
37.40
33.88
23.43
9.09
-5.67
-17.90
-25.93
-29.39
-29.30
-27.38
-25.49
-24.93
-26.13
-28.57
-31.17
-32.84
-32.87
-31.19
-28.35
-25.40
-23.59
-24.11
-27.79
-34.83
-44.65
-56.02
-67.41
-77.52
-85.55
-91.32
-94.86
-96.09
-94.60
-89.84
-81.56
-70.30
-57.53
-45.24
-35.26
-28.53
-24.70
-22.39
-19.78
-15.26
-7.80
3.15
17.81
36.03
57.04
78.97
98.89
113.46
120.15
118.26
109.27
96.09
81.70
67.88
54.87
41.94
28.50
14.84
2.03
-8.92
-17.96
-26.20
-35.23
-45.92
-57.61
-68.17
-75.08
-76.87
-73.99
-68.73
-64.00
-61.94
-62.98
-65.95
-68.95
-70.51
-70.28
-68.83
-66.88
-64.54
-61.04
-55.30
-46.90
-36.73
-26.95
-20.11
-17.98
-21.03
-28.70
-40.38
-56.09
-76.25
-100.26
-125.21
-145.54
-154.75
-148.16
-125.53
-91.74
-55.05
-23.76
-3.16
5.92
6.15
1.53
-4.56
-10.23
-14.64
-17.12
-16.78
-12.77
-4.86
6.07
18.18
29.26
37.38
41.37
40.95
36.73
30.08
23.06
18.26
18.29
25.15
39.68
61.37
88.59
119.00
149.95
178.64
202.29
218.11
223.65
217.15
198.05
167.33
127.55
82.36
35.65
-9.29
-50.34
-86.22
-115.79
-137.12
-147.35
-143.66
-125.00
-93.62
-55.32
-18.01
10.92
26.99
29.76
22.10
8.32
-7.67
-23.46
-38.21
-52.13
-65.75
-79.32
-92.26
-102.88
-108.36
-105.23
-90.02
-60.41
-16.10
40.45
103.76
165.77
217.33
250.22
259.35
244.24
209.10
161.38
109.52
60.78
20.06
-10.08
-28.96
-37.44
-37.78
-33.52
-28.84
-26.99
-28.82
-32.18
-32.84
-26.57
-11.31
11.60
37.85
61.82
78.65
85.77
83.17
72.67
56.68
37.38
16.63
-3.88
-22.51
-37.75
-48.65
-55.08
-57.60
-57.03
-54.01
-48.82
-41.62
-32.99
-24.28
-17.66
-15.50
-19.57
-30.24
-46.15
-64.65
-82.44
-96.55
-105.24
-108.59
-108.46
-107.78
-109.42
-115.27
-125.72
-139.89
-156.25
-173.22
-189.60
-204.65
-217.91
-229.11
-238.09
-244.64
-248.29
-248.02
-242.38
-229.95
-210.15
-183.86
-153.53
-122.46
-93.68
-68.90
-48.31
-30.93
-15.33
-0.46
14.16
28.41
41.97
54.44
65.49
74.77
81.95
86.76
89.13
89.34
88.01
85.96
83.97
82.52
81.64
80.92
79.67
77.08
72.61
66.11
57.99
49.14
40.60
33.26
27.44
22.77
18.33
12.96
5.73
-3.79
-15.34
-28.08
-40.75
-51.92
-60.14
-64.13
-62.97
-56.32
-44.62
-29.08
-11.46
6.35
22.82
37.12
49.15
59.33
68.25
76.33
83.69
90.20
95.63
99.90
103.18
105.89
108.57
111.69
115.47
119.84
124.43
128.77
132.46
135.22
136.90
137.34
136.37
133.93
130.18
125.78
121.58
118.26
115.58
111.98
104.71
90.79
68.38
37.72
1.31
-37.22
-74.60
-108.91
-139.47
-165.72
-186.08
-197.76
-197.95
-185.54
-162.40
-133.10
-103.16
-76.71
-55.13
-37.26
-20.95
-4.89
10.49
23.47
32.25
36.23
36.32
34.55
32.95
32.74
34.02
36.18
38.37
40.11
41.42
42.58
43.80
44.99
45.76
45.55
43.98
40.93
36.72
31.86
26.86
22.01
17.30
12.49
7.31
1.67
-4.29
-10.23
-15.80
-20.80
-25.32
-29.74
-34.65
-40.57
-47.68
-55.51
-62.91
-68.21
-69.76
-66.52
-58.44
-46.53
-32.44
-17.89
-4.17
8.12
18.89
28.28
36.27
42.68
47.25
49.92
50.95
50.99
50.77
50.86
51.43
52.22
52.71
52.43
51.21
49.20
46.83
44.49
42.34
40.21
37.71
34.40
30.04
24.69
18.74
12.74
7.24
2.56
-1.32
-4.74
-8.30
-12.59
-18.08
-24.89
-32.69
-40.67
-47.64
-52.26
-53.32
-50.16
-42.83
-32.15
-19.42
-6.10
6.61
17.96
27.63
35.55
41.77
46.32
49.19
50.39
50.04
48.39
45.90
43.09
40.50
38.43
36.92
35.73
34.50
32.94
30.99
28.78
26.48
24.07
21.29
17.73
13.08
7.37
1.04
-5.27
-10.93
-15.62
-19.46
-22.98
-26.90
-31.93
-38.48
-46.50
-55.34
-63.71
-70.04
-72.79
-70.89
-64.20
-53.40
-39.90
-25.33
-11.08
1.92
13.29
23.04
31.37
38.43
44.29
48.91
52.28
54.44
55.54
55.82
55.54
54.95
54.22
53.41
52.49
51.31
49.71
47.55
44.76
41.38
37.58
33.57
29.49
25.37
21.06
16.37
11.15
5.46
-0.45
-6.22
-11.50
-16.13
-20.17
-23.95
-27.94
-32.69
-38.63
-45.93
-54.25
-62.66
-69.72
-73.80
-73.54
-68.29
-58.40
-45.09
-30.08
-15.02
-1.14
10.94
21.10
29.51
36.37
41.85
46.06
49.08
51.08
52.27
52.86
53.04
52.94
52.60
52.00
51.10
49.88
48.32
46.45
44.25
41.71
38.81
35.51
31.86
27.92
23.78
19.48
15.00
10.29
5.36
0.28
-4.77
-9.55
-13.92
-17.86
-21.50
-25.20
-29.42
-34.60
-40.98
-48.35
-55.93
-62.38
-66.14
-65.87
-60.99
-51.86
-39.71
-26.22
-12.98
-1.06
9.03
17.28
23.83
28.80
32.21
34.12
34.69
34.34
33.57
32.87
32.55
32.63
32.88
32.94
32.52
31.46
29.82
27.76
25.45
22.92
20.04
16.58
12.33
7.27
1.59
-4.27
-9.83
-14.70
-18.78
-22.26
-25.57
-29.27
-33.87
-39.69
-46.66
-54.19
-61.20
-66.22
-67.83
-65.10
-57.97
-47.25
-34.45
-21.20
-8.80
2.05
11.26
19.04
25.60
31.00
35.09
37.72
38.91
38.88
38.10
37.07
36.16
35.50
34.97
34.33
33.35
31.88
29.94
27.61
24.96
22.00
18.72
15.07
11.09
6.79
2.27
-2.41
-7.16
-11.86
-16.40
-20.66
-24.61
-28.32
-31.99
-35.86
-40.20
-45.27
-51.20
-57.91
-64.86
-71.07
-75.16
-75.75
-71.92
-63.58
-51.55
-37.31
-22.53
-8.60
3.67
14.05
22.67
29.78
35.54
40.00
43.18
45.18
46.26
46.73
46.95
47.11
47.23
47.23
46.98
46.39
45.44
44.14
42.45
40.28
37.54
34.22
30.50
26.65
22.95
19.54
16.31
13.00
9.30
5.00
0.17
-4.93
-9.92
-14.53
-18.60
-22.21
-25.62
-29.18
-33.36
-38.50
-44.76
-51.83
-58.80
-64.28
-66.71
-64.86
-58.32
-47.72
-34.49
-20.49
-7.30
4.13
13.60
21.41
27.98
33.50
37.81
40.61
41.71
41.31
40.04
38.80
38.38
39.18
41.00
43.20
44.93
45.52
44.73
42.86
40.59
38.64
37.51
37.18
37.20
36.87
35.66
33.42
30.53
27.78
26.11
26.43
29.36
35.06
42.99
51.66
58.78
61.76
58.87
50.39
39.39
31.10
31.20
43.44
67.75
100.05
133.53
161.27
178.41
183.24
176.75
161.61
141.37
120.19
102.63
92.91
93.46
103.68
119.59
135.01
143.86
142.28
129.71
108.48
82.46
55.61
31.16
11.28
-2.89
-11.28
-14.98
-16.07
-16.89
-19.30
-24.09
-30.99
-39.19
-47.81
-56.26
-64.32
-71.95
-79.16
-85.96
-92.34
-98.32
-103.92
-109.11
-113.83
-118.09
-121.97
-125.58
-128.96
-131.91
-133.87
-134.02
-131.53
-125.80
-116.79
-105.13
-92.14
-79.77
-70.30
-66.01
-68.70
-79.09
-96.42
-118.33
-141.19
-160.97
-174.13
-178.53
-173.89
-161.57
-144.03
-123.94
-103.58
-84.43
-67.33
-52.79
-41.40
-33.97
-31.38
-34.22
-42.40
-54.77
-69.11
-82.33
-91.07
-92.43
-84.91
-68.98
-47.16
-23.46
-2.15
13.45
21.85
23.63
20.88
16.08
11.06
6.17
0.19
-8.97
-23.09
-42.60
-66.06
-90.25
-111.00
-124.47
-128.82
-125.23
-117.72
-111.53
-110.54
-115.04
-121.06
-122.00
-111.76
-88.01
-53.67
-15.72
17.77
41.29
53.80
58.22
59.07
59.87
61.63
63.30
63.40
61.43
58.61
57.25
59.23
64.69
71.57
76.47
76.28
69.74
57.98
44.15
31.87
23.66
20.03
19.53
19.63
17.89
13.01
5.06
-4.80
-15.03
-24.41
-32.15
-37.86
-41.25
-41.90
-39.38
-33.51
-24.60
-13.52
-1.53
10.08
20.32
28.65
34.99
39.62
42.92
45.35
47.29
49.00
50.58
51.94
52.96
53.48
53.48
53.10
52.54
51.99
51.50
50.99
50.22
48.92
46.87
43.99
40.37
36.28
32.10
28.18
24.74
21.73
18.88
15.75
12.00
7.49
2.40
-2.89
-7.94
-12.47
-16.47
-20.19
-24.09
-28.62
-34.17
-40.82
-48.24
-55.61
-61.69
-65.10
-64.71
-60.03
-51.43
-40.08
-27.54
-15.29
-4.36
4.86
12.45
18.71
23.83
27.88
30.79
32.56
33.41
33.74
34.04
34.61
35.48
36.36
36.81
36.47
35.25
33.38
31.26
29.29
27.57
25.93
23.98
21.30
17.70
13.29
8.43
3.60
-0.85
-4.78
-8.32
-11.75
-15.40
-19.59
-24.57
-30.48
-37.23
-44.33
-50.85
-55.49
-56.96
-54.36
-47.58
-37.39
-25.17
-12.51
-0.69
9.58
18.15
25.22
31.04
35.70
39.09
41.06
41.60
40.98
39.68
38.31
37.37
37.04
37.23
37.60
37.81
37.58
36.79
35.38
33.30
30.57
27.20
23.32
19.09
14.68
10.17
5.57
0.88
-3.88
-8.60
-13.17
-17.46
-21.48
-25.40
-29.46
-34.00
-39.35
-45.69
-52.89
-60.37
-67.01
-71.32
-71.89
-67.83
-59.16
-46.88
-32.66
-18.21
-4.92
6.55
16.10
23.94
30.32
35.32
38.97
41.30
42.54
43.00
43.11
43.12
43.10
42.92
42.32
41.11
39.22
36.80
34.12
31.45
28.90
26.37
23.57
20.14
15.82
10.56
4.59
-1.64
-7.57
-12.76
-17.05
-20.58
-23.80
-27.36
-31.88
-37.76
-44.96
-52.90
-60.44
-66.09
-68.34
-66.15
-59.24
-48.29
-34.72
-20.23
-6.41
5.76
15.92
24.23
31.10
36.84
41.56
45.20
47.64
48.87
49.12
48.76
48.21
47.70
47.25
46.62
45.51
43.68
41.13
38.09
34.84
31.64
28.53
25.39
21.95
17.98
13.39
8.30
3.00
-2.15
-6.92
-11.20
-15.09
-18.79
-22.51
-26.51
-31.05
-36.43
-42.79
-49.92
-57.01
-62.67
-65.27
-63.49
-56.86
-45.98
-32.45
-18.18
-4.79
6.77
16.33
24.12
30.42
35.23
38.43
39.92
39.92
38.98
37.86
37.15
37.07
37.38
37.55
37.07
35.67
33.46
30.74
27.88
25.09
22.31
19.31
15.76
11.44
6.31
0.66
-5.03
-10.24
-14.59
-18.02
-20.87
-23.78
-27.51
-32.64
-39.29
-46.90
-54.25
-59.69
-61.60
-58.82
-51.09
-39.14
-24.60
-9.51
4.26
15.48
23.75
29.39
33.13
35.66
37.40
38.51
38.98
38.92
38.60
38.38
38.46
38.81
39.10
38.91
37.99
36.36
34.26
31.97
29.61
27.08
24.17
20.77
16.93
12.93
9.05
5.43
2.04
-1.36
-5.01
-9.04
-13.42
-17.99
-22.47
-26.68
-30.51
-34.04
-37.56
-41.51
-46.40
-52.54
-59.90
-67.77
-74.85
-79.38
-79.70
-74.79
-64.70
-50.61
-34.44
-18.28
-3.67
8.60
18.57
26.68
33.42
39.02
43.51
46.80
48.93
50.07
50.50
50.47
50.10
49.39
48.34
47.03
45.60
44.24
43.00
41.80
40.34
38.26
35.34
31.53
27.09
22.41
17.95
13.96
10.47
7.20
3.78
-0.12
-4.58
-9.39
-14.17
-18.51
-22.17
-25.22
-27.96
-30.92
-34.62
-39.51
-45.64
-52.56
-59.16
-63.90
-65.12
-61.68
-53.38
-41.11
-26.60
-11.82
1.61
12.79
21.54
28.06
32.67
35.60
37.05
37.31
36.83
36.16
35.76
35.86
36.34
36.86
37.06
36.67
35.67
34.26
32.65
30.99
29.25
27.21
24.58
21.17
17.02
12.45
7.92
3.86
0.46
-2.38
-5.05
-8.01
-11.58
-15.84
-20.56
-25.40
-29.97
-34.09
-37.75
-41.20
-44.83
-49.11
-54.43
-60.87
-68.05
-74.91
-79.97
-81.60
-78.59
-70.60
-58.34
-43.35
-27.50
-12.46
0.77
11.83
20.89
28.31
34.40
39.35
43.17
45.87
47.48
48.16
48.11
47.63
46.99
46.34
45.75
45.16
44.48
43.61
42.51
41.11
39.39
37.32
34.88
32.11
29.10
25.94
22.70
19.42
16.14
12.88
9.71
6.70
3.87
1.15
-1.56
-4.46
-7.69
-11.32
-15.30
-19.45
-23.52
-27.26
-30.56
-33.48
-36.26
-39.32
-43.15
-48.13
-54.30
-61.21
-67.82
-72.67
-74.23
-71.36
-63.72
-51.92
-37.41
-22.03
-7.55
4.84
14.62
21.88
27.02
30.51
32.68
33.77
34.00
33.66
33.10
32.68
32.60
32.84
33.22
33.48
33.44
33.01
32.22
31.01
29.29
26.90
23.74
19.91
15.66
11.39
7.41
3.86
0.63
-2.54
-5.86
-9.44
-13.22
-17.00
-20.58
-23.85
-26.83
-29.64
-32.54
-35.89
-40.08
-45.39
-51.68
-58.26
-63.82
-66.73
-65.55
-59.59
-49.18
-35.67
-20.92
-6.75
5.57
15.47
23.05
28.66
32.70
35.42
36.99
37.56
37.35
36.70
35.97
35.43
35.22
35.25
35.36
35.29
34.84
33.91
32.51
30.71
28.64
26.36
23.91
21.25
18.30
15.08
11.64
8.15
4.81
1.79
-0.83
-3.04
-4.99
-6.91
-9.12
-11.88
-15.35
-19.46
-23.93
-28.36
-32.39
-35.85
-38.84
-41.62
-44.58
-48.15
-52.59
-57.96
-63.93
-69.69
-73.97
-75.34
-72.64
-65.46
-54.36
-40.77
-26.48
-13.07
-1.48
8.11
16.10
23.05
29.35
35.08
40.02
43.87
46.46
47.80
48.10
47.69
46.83
45.72
44.44
43.08
41.75
40.62
39.84
39.33
38.85
37.97
36.28
33.58
29.97
25.84
21.73
18.11
15.24
13.09
11.40
9.78
7.87
5.47
2.55
-0.70
-3.99
-7.03
-9.71
-12.11
-14.52
-17.28
-20.65
-24.64
-28.98
-33.26
-37.08
-40.25
-42.84
-45.19
-47.78
-51.13
-55.61
-61.31
-67.81
-74.08
-78.56
-79.55
-75.74
-66.75
-53.40
-37.44
-21.01
-5.94
6.65
16.48
23.88
29.44
33.68
36.99
39.55
41.51
42.95
43.97
44.62
44.91
44.84
44.38
43.58
42.53
41.39
40.33
39.41
38.56
37.55
36.09
33.99
31.25
28.08
24.76
21.58
18.70
16.09
13.62
11.10
8.43
5.61
2.73
-0.08
-2.77
-5.41
-8.18
-11.33
-14.98
-19.15
-23.63
-28.11
-32.26
-35.87
-38.95
-41.70
-44.53
-47.88
-52.12
-57.20
-62.48
-66.76
-68.46
-66.16
-59.08
-47.42
-32.31
-15.46
1.40
16.86
30.09
40.82
49.13
55.37
60.04
63.76
67.16
70.74
74.78
79.25
83.83
88.04
91.43
93.74
95.00
95.66
96.43
97.99
100.68
104.17
107.33
108.62
106.72
101.10
92.37
82.10
72.21
64.28
59.05
56.39
55.68
56.36
58.26
61.73
67.38
75.73
86.83
100.04
113.96
126.64
136.03
140.48
139.15
132.23
120.66
105.73
88.64
70.25
51.12
31.67
12.18
-7.31
-27.15
-47.77
-69.17
-90.45
-109.72
-124.75
-133.94
-136.96
-134.76
-128.84
-120.31
-109.44
-96.05
-80.33
-63.47
-47.64
-34.99
-26.66
-22.18
-19.83
-17.75
-15.07
-12.41
-11.47
-14.06
-21.06
-31.80
-44.26
-55.81
-64.07
-67.73
-66.74
-62.04
-54.96
-46.59
-37.65
-28.59
-19.99
-12.81
-8.28
-7.44
-10.62
-17.21
-25.84
-34.92
-43.35
-50.77
-57.55
-64.34
-71.56
-79.10
-86.21
-91.74
-94.50
-93.60
-88.83
-80.69
-70.33
-59.19
-48.53
-39.14
-31.25
-24.68
-19.15
-14.56
-10.99
-8.56
-7.15
-6.31
-5.33
-3.54
-0.57
3.50
8.17
12.79
16.86
20.19
22.87
25.19
27.38
29.60
31.80
33.83
35.44
36.44
36.71
36.29
35.37
34.27
33.32
32.73
32.60
32.90
33.46
34.02
34.14
33.34
31.15
27.42
22.42
16.91
11.84
8.02
5.75
4.54
3.37
0.92
-3.79
-11.01
-20.12
-29.75
-38.28
-44.35
-47.28
-47.22
-44.94
-41.38
-37.22
-32.71
-27.74
-22.11
-15.72
-8.64
-1.00
7.06
15.30
23.24
30.04
34.69
36.33
34.73
30.51
25.02
19.83
16.18
14.47
14.18
14.18
13.24
10.49
5.70
-0.74
-8.18
-15.91
-23.56
-31.04
-38.43
-45.81
-53.04
-59.84
-65.85
-70.81
-74.51
-76.78
-77.37
-76.13
-73.12
-68.82
-64.15
-60.24
-58.05
-58.03
-59.98
-63.11
-66.47
-69.26
-71.15
-72.16
-72.47
-72.16
-71.08
-68.86
-65.11
-59.56
-52.19
-43.24
-33.11
-22.27
-11.22
-0.52
9.17
17.13
22.72
25.64
25.98
24.45
22.05
19.91
18.90
19.34
21.03
23.34
25.51
26.82
26.70
24.73
20.68
14.68
7.35
-0.21
-6.73
-11.17
-13.20
-13.20
-12.14
-10.98
-10.39
-10.59
-11.51
-13.00
-14.96
-17.35
-20.09
-22.97
-25.75
-28.19
-30.13
-31.46
-32.14
-32.17
-31.70
-31.11
-30.96
-31.87
-34.22
-37.97
-42.48
-46.60
-49.00
-48.48
-44.35
-36.61
-25.99
-13.69
-1.05
10.83
21.28
30.04
37.14
42.72
46.88
49.72
51.41
52.19
52.39
52.22
51.82
51.14
50.16
48.90
47.54
46.32
45.46
44.96
44.64
44.18
43.29
41.87
40.09
38.23
36.75
36.10
36.72
38.86
42.37
46.42
49.52
50.02
46.73
39.67
30.09
20.06
11.48
5.27
1.13
-2.06
-5.48
-9.81
-15.09
-21.01
-27.25
-33.53
-39.38
-43.90
-45.77
-43.73
-37.11
-26.28
-12.61
1.98
15.70
27.31
36.29
42.68
46.79
48.97
49.54
48.84
47.26
45.24
43.15
41.21
39.45
37.86
36.43
35.24
34.26
33.34
32.11
30.16
27.23
23.39
18.95
14.31
9.71
5.11
0.26
-5.13
-11.09
-17.25
-22.94
-27.37
-29.94
-30.55
-29.57
-27.73
-25.78
-24.28
-23.40
-23.05
-23.04
-23.33
-24.06
-25.49
-27.79
-30.93
-34.62
-38.34
-41.54
-43.72
-44.58
-44.05
-42.31
-39.70
-36.62
-33.37
-30.16
-26.98
-23.71
-20.13
-15.97
-11.08
-5.51
0.39
5.97
10.36
12.67
12.11
8.29
1.32
-8.10
-18.75
-29.13
-37.90
-44.21
-47.91
-49.44
-49.37
-47.98
-45.05
-40.16
-33.13
-24.56
-15.82
-8.48
-3.58
-1.05
0.15
1.33
3.26
5.71
7.76
8.52
7.73
5.98
4.20
2.97
2.12
0.91
-1.47
-5.34
-10.24
-15.26
-19.47
-22.23
-23.40
-23.17
-21.90
-19.96
-17.68
-15.27
-12.79
-10.09
-6.96
-3.26
1.01
5.54
9.92
13.76
16.87
19.27
21.18
22.92
24.73
26.74
28.85
30.72
31.89
31.95
30.72
28.40
25.53
22.78
20.68
19.45
18.91
18.63
18.17
17.32
16.09
14.67
13.24
11.84
10.42
8.87
7.17
5.42
3.74
2.21
0.71
-0.94
-2.92
-5.29
-7.88
-10.38
-12.51
-14.10
-15.16
-15.80
-16.22
-16.57
-16.99
-17.59
-18.38
-19.29
-20.13
-20.63
-20.62
-19.99
-18.80
-17.23
-15.48
-13.74
-12.12
-10.68
-9.45
-8.39
-7.46
-6.55
-5.55
-4.39
-3.16
-2.00
-1.12
-0.60
-0.42
-0.46
-0.69
-1.14
-2.00
-3.40
-5.33
-7.59
-9.79
-11.54
-12.58
-12.89
-12.63
-12.07
-11.55
-11.30
-11.51
-12.22
-13.44
-15.07
-17.03
-19.23
-21.64
-24.23
-26.95
-29.74
-32.57
-35.45
-38.43
-41.55
-44.71
-47.67
-50.19
-52.06
-53.26
-53.89
-54.06
-53.76
-52.94
-51.53
-49.62
-47.47
-45.34
-43.33
-41.25
-38.70
-35.23
-30.59
-24.85
-18.28
-11.32
-4.31
2.48
8.87
14.75
20.17
25.30
30.41
35.79
41.52
47.47
53.31
58.65
63.17
66.68
69.08
70.35
70.54
69.73
68.13
65.96
63.43
60.78
58.24
56.00
54.21
52.83
51.59
50.08
47.86
44.69
40.67
36.09
31.26
26.28
20.95
14.90
7.84
-0.28
-9.24
-18.58
-27.77
-36.29
-43.67
-49.47
-53.34
-55.02
-54.41
-51.68
-47.20
-41.53
-35.26
-28.91
-22.81
-17.09
-11.72
-6.63
-1.82
2.61
6.49
9.74
12.32
14.30
15.75
16.70
17.14
17.16
17.08
17.34
18.39
20.38
23.11
26.06
28.66
30.51
31.53
31.89
31.80
31.41
30.68
29.57
28.11
26.46
24.80
23.25
21.73
20.03
17.81
14.81
10.90
6.15
0.80
-4.76
-10.06
-14.69
-18.39
-21.11
-23.00
-24.41
-25.75
-27.46
-29.79
-32.73
-35.93
-38.70
-40.22
-39.66
-36.58
-31.04
-23.61
-15.22
-6.86
0.76
7.29
12.72
17.15
20.67
23.26
24.87
25.63
25.87
26.08
26.68
27.75
29.01
29.95
30.13
29.41
28.05
26.47
25.07
23.93
22.91
21.74
20.26
18.47
16.51
14.52
12.54
10.52
8.38
6.15
3.95
1.89
-0.01
-1.86
-3.86
-6.09
-8.44
-10.63
-12.38
-13.61
-14.62
-15.96
-18.24
-21.77
-26.30
-31.00
-34.69
-36.19
-34.80
-30.45
-23.72
-15.56
-6.95
1.41
9.18
16.33
22.82
28.50
33.09
36.25
37.88
38.22
37.78
37.15
36.80
36.84
37.13
37.35
37.29
36.88
36.21
35.43
34.52
33.37
31.74
29.42
26.40
22.80
18.90
14.98
11.23
7.70
4.33
1.02
-2.26
-5.37
-8.07
-10.07
-11.09
-11.10
-10.21
-8.78
-7.24
-6.03
-5.51
-5.99
-7.60
-10.37
-14.14
-18.63
-23.50
-28.51
-33.50
-38.40
-43.06
-47.13
-49.99
-50.99
-49.67
-46.07
-40.77
-34.69
-28.75
-23.46
-18.87
-14.65
-10.40
-5.91
-1.25
3.29
7.42
10.89
13.64
15.69
17.11
17.96
18.35
18.44
18.42
18.42
18.42
18.33
17.99
17.29
16.25
14.97
13.49
11.77
9.76
7.43
4.88
2.28
-0.19
-2.44
-4.53
-6.62
-8.84
-11.17
-13.45
-15.37
-16.62
-17.10
-16.93
-16.56
-16.67
-17.94
-20.77
-25.08
-30.19
-34.96
-38.06
-38.42
-35.56
-29.62
-21.35
-11.79
-1.99
7.25
15.42
22.35
28.07
32.74
36.53
39.55
41.85
43.42
44.34
44.74
44.83
44.78
44.63
44.26
43.48
42.16
40.31
38.07
35.54
32.72
29.43
25.47
20.74
15.35
9.63
4.05
-0.94
-5.02
-8.12
-10.46
-12.49
-14.71
-17.51
-20.92
-24.65
-28.24
-31.29
-33.71
-35.74
-37.83
-40.44
-43.88
-48.19
-53.07
-57.92
-61.84
-63.79
-62.85
-58.50
-50.94
-41.05
-30.17
-19.58
-10.14
-2.04
5.06
11.69
18.19
24.47
30.08
34.49
37.43
39.10
40.01
40.80
41.79
42.88
43.65
43.60
42.45
40.32
37.63
34.90
32.54
30.65
29.10
27.62
25.98
24.01
21.71
19.19
16.63
14.19
11.93
9.76
7.48
4.90
1.90
-1.40
-4.74
-7.80
-10.34
-12.35
-14.04
-15.73
-17.73
-20.26
-23.42
-27.27
-31.82
-36.89
-41.86
-45.62
-46.65
-43.58
-35.82
-23.93
-9.67
4.68
17.06
26.31
32.31
35.62
36.99
37.01
36.12
34.92
34.18
34.68
36.75
39.88
42.85
44.16
42.83
38.88
33.26
27.50
22.93
20.19
19.09
18.82
18.42
17.15
14.81
11.65
8.25
5.23
3.02
1.78
1.37
1.50
1.95
2.56
3.29
4.06
4.66
4.77
4.03
2.28
-0.46
-3.93
-7.76
-11.55
-14.78
-16.85
-17.02
-14.57
-9.10
-0.74
9.80
21.39
32.91
43.52
52.86
60.87
67.71
73.50
78.24
81.82
84.05
84.80
84.12
82.45
80.51
79.10
78.71
79.23
79.91
79.76
77.99
74.63
70.48
66.83
64.79
64.68
65.69
65.99
63.37
55.84
42.42
23.38
0.24
-24.80
-49.50
-72.24
-92.26
-109.53
-124.44
-137.31
-148.05
-156.09
-160.32
-159.54
-152.97
-140.89
-125.05
-108.51
-94.81
-86.81
-85.63
-90.35
-98.51
-107.21
-114.12
-118.00
-118.55
-115.89
-110.10
-101.17
-89.27
-75.04
-59.75
-44.95
-32.11
-22.08
-14.95
-10.01
-6.13
-2.14
2.75
8.64
15.05
21.05
25.73
28.54
29.43
28.84
27.44
25.85
24.42
23.27
22.30
21.40
20.49
19.51
18.49
17.36
16.05
14.44
12.43
9.95
7.06
3.88
0.60
-2.56
-5.47
-8.15
-10.74
-13.50
-16.70
-20.47
-24.78
-29.40
-33.95
-38.03
-41.20
-43.04
-43.19
-41.31
-37.16
-30.75
-22.38
-12.66
-2.38
7.67
16.96
25.20
32.31
38.26
42.97
46.25
47.95
48.12
47.10
45.44
43.79
42.66
42.31
42.69
43.52
44.40
44.93
44.81
43.85
41.97
39.15
35.46
30.99
25.99
20.81
15.92
11.76
8.56
6.22
4.34
2.32
-0.34
-3.84
-8.07
-12.65
-17.18
-21.46
-25.49
-29.45
-33.59
-37.93
-42.19
-45.68
-47.50
-46.85
-43.30
-37.04
-28.86
-19.83
-10.97
-2.89
4.29
10.75
16.76
22.44
27.69
32.33
36.15
39.08
41.10
42.26
42.60
42.27
41.48
40.50
39.55
38.66
37.71
36.44
34.59
32.10
29.04
25.65
22.17
18.76
15.52
12.51
9.73
7.17
4.73
2.29
-0.27
-3.00
-5.81
-8.51
-10.95
-13.12
-15.18
-17.39
-19.96
-22.89
-25.97
-28.84
-31.19
-32.94
-34.22
-35.42
-37.02
-39.44
-42.85
-47.00
-51.16
-54.29
-55.26
-53.25
-48.04
-40.07
-30.33
-20.00
-10.12
-1.36
6.03
12.14
17.31
21.82
25.93
29.72
33.14
36.03
38.24
39.70
40.45
40.61
40.31
39.69
38.86
37.88
36.81
35.65
34.33
32.78
30.94
28.81
26.46
24.00
21.52
19.07
16.64
14.18
11.65
9.01
6.25
3.45
0.70
-1.87
-4.20
-6.31
-8.26
-10.20
-12.24
-14.45
-16.84
-19.33
-21.86
-24.29
-26.55
-28.65
-30.74
-33.12
-36.07
-39.73
-43.80
-47.53
-49.83
-49.67
-46.42
-40.17
-31.69
-22.16
-12.74
-4.24
3.01
9.06
14.10
18.21
21.37
23.51
24.73
25.27
25.57
26.02
26.80
27.83
28.78
29.32
29.23
28.58
27.58
26.57
25.73
25.06
24.33
23.24
21.51
19.09
16.10
12.84
9.61
6.61
3.83
1.12
-1.76
-4.99
-8.64
-12.60
-16.65
-20.45
-23.71
-26.25
-28.12
-29.58
-31.08
-33.17
-36.28
-40.62
-46.00
-51.75
-56.81
-59.93
-60.01
-56.49
-49.54
-40.09
-29.51
-19.17
-9.96
-2.14
4.60
10.74
16.55
21.90
26.34
29.35
30.70
30.55
29.40
27.85
26.39
25.28
24.58
24.19
23.96
23.72
23.31
22.63
21.65
20.38
18.78
16.80
14.36
11.50
8.40
5.43
2.93
1.04
-0.42
-1.90
-3.87
-6.64
-10.17
-14.15
-18.20
-21.98
-25.39
-28.50
-31.47
-34.50
-37.81
-41.53
-45.74
-50.42
-55.33
-60.02
-63.79
-65.76
-65.21
-61.76
-55.61
-47.44
-38.30
-29.14
-20.55
-12.65
-5.19
2.17
9.57
16.84
23.59
29.42
34.20
38.06
41.33
44.33
47.18
49.70
51.45
51.87
50.39
46.73
41.09
34.30
27.74
22.91
20.83
21.51
23.82
25.87
25.85
22.87
17.29
10.54
4.32
-0.28
-3.13
-4.92
-6.56
-8.48
-10.37
-11.43
-10.89
-8.63
-5.34
-2.22
-0.49
-0.87
-3.32
-7.23
-11.75
-15.97
-19.11
-20.40
-19.04
-14.33
-5.83
6.42
21.77
39.14
57.21
74.56
89.77
101.46
108.42
109.81
105.56
96.44
84.04
70.29
57.01
45.48
36.37
29.87
25.90
24.33
24.84
26.84
29.36
31.14
30.96
27.97
21.98
13.60
4.08
-5.04
-12.26
-16.59
-17.67
-15.72
-11.49
-6.03
-0.75
2.66
2.30
-3.44
-15.37
-33.14
-55.27
-79.78
-104.85
-129.30
-152.50
-173.71
-191.60
-204.09
-209.00
-204.93
-192.08
-172.28
-148.36
-123.27
-99.23
-77.45
-58.13
-40.90
-25.03
-9.86
5.15
20.17
35.06
49.31
62.32
73.54
82.76
90.06
95.67
99.77
102.45
103.65
103.41
101.83
98.98
94.75
88.76
80.56
70.00
57.70
45.13
34.28
26.95
24.10
25.44
29.61
34.62
38.42
39.26
35.94
28.09
16.27
2.06
-12.35
-24.82
-34.04
-39.93
-43.34
-45.30
-46.07
-44.87
-40.37
-31.67
-19.32
-5.34
7.53
17.24
23.39
27.49
31.94
38.69
47.99
58.20
66.60
70.78
69.82
64.65
57.47
50.59
45.50
42.59
41.44
41.54
42.70
45.04
48.61
53.01
57.30
60.37
61.59
61.28
60.82
61.90
65.69
71.84
78.29
81.81
79.31
69.18
52.06
30.66
8.55
-11.13
-26.78
-38.43
-47.18
-54.24
-60.44
-66.03
-71.03
-75.37
-78.90
-81.08
-80.91
-77.14
-68.85
-56.09
-40.17
-23.37
-8.13
3.68
11.40
15.45
16.94
17.08
16.72
16.27
15.71
14.92
13.77
12.22
10.28
7.97
5.35
2.41
-0.70
-3.82
-6.75
-9.37
-11.72
-14.03
-16.63
-19.76
-23.44
-27.42
-31.28
-34.63
-37.30
-39.43
-41.38
-43.61
-46.36
-49.65
-53.25
-56.82
-60.05
-62.81
-65.13
-67.20
-69.34
-71.88
-75.14
-79.16
-83.63
-87.65
-89.95
-89.28
-84.82
-76.65
-65.70
-53.49
-41.55
-30.96
-22.14
-14.92
-8.91
-3.79
0.58
4.14
6.89
8.94
10.65
12.36
14.28
16.37
18.31
19.71
20.32
20.12
19.35
18.35
17.38
16.45
15.34
13.68
11.12
7.60
3.34
-1.15
-5.27
-8.61
-11.13
-13.20
-15.52
-18.80
-23.48
-29.47
-36.14
-42.38
-46.86
-48.32
-45.89
-39.39
-29.35
-16.94
-3.68
8.99
20.04
29.04
36.09
41.59
45.93
49.32
51.73
53.09
53.42
53.01
52.32
51.80
51.69
51.89
52.04
51.80
50.94
49.54
47.88
46.26
44.81
43.41
41.77
39.54
36.47
32.48
27.76
22.68
17.76
13.53
10.37
8.33
6.99
5.52
2.84
-2.05
-9.67
-19.71
-31.04
-41.92
-50.44
-55.02
-54.84
-50.02
-41.48
-30.67
-19.20
-8.49
0.51
7.38
12.17
15.21
16.95
17.82
18.12
18.10
17.95
17.77
17.63
17.42
17.04
16.44
15.72
15.09
14.79
14.89
15.26
15.51
15.28
14.31
12.59
10.37
7.95
5.64
3.59
1.77
0.00
-1.96
-4.33
-7.27
-10.72
-14.44
-18.07
-21.29
-23.93
-26.17
-28.47
-31.49
-35.83
-41.69
-48.72
-55.85
-61.52
-64.11
-62.46
-56.30
-46.36
-34.11
-21.29
-9.27
1.24
10.22
18.02
25.10
31.62
37.46
42.31
45.86
48.02
48.94
48.91
48.32
47.46
46.49
45.44
44.23
42.80
41.13
39.28
37.33
35.30
33.11
30.62
27.69
24.30
20.53
16.62
12.79
9.22
6.01
3.11
0.40
-2.32
-5.24
-8.50
-12.11
-15.97
-19.82
-23.37
-26.43
-28.94
-31.03
-32.97
-35.10
-37.80
-41.41
-46.16
-52.04
-58.65
-65.10
-70.11
-72.31
-70.65
-64.84
-55.41
-43.58
-30.90
-18.70
-7.82
1.50
9.37
16.04
21.61
26.10
29.44
31.71
33.12
34.00
34.55
34.75
34.38
33.14
30.90
27.83
24.44
21.45
19.63
19.59
21.61
25.37
29.83
33.32
33.87
29.96
21.05
7.95
-7.51
-23.08
-36.89
-47.91
-56.03
-61.67
-65.43
-67.80
-69.12
-69.65
-69.69
-69.54
-69.41
-69.39
-69.36
-69.09
-68.40
-67.37
-66.43
-66.34
-67.84
-71.11
-75.30
-78.52
-78.33
-72.65
-60.65
-43.16
-22.41
-1.23
17.83
33.23
44.55
52.25
57.20
60.27
62.14
63.32
64.13
64.84
65.64
66.58
67.64
68.68
69.49
69.83
69.52
68.49
66.91
65.08
63.30
61.77
60.36
58.67
56.18
52.51
47.64
42.02
36.35
31.26
26.98
23.21
19.25
14.39
8.26
1.09
-6.39
-13.23
-18.70
-22.61
-25.34
-27.73
-30.75
-35.17
-41.31
-48.84
-56.75
-63.41
-66.85
-65.27
-57.63
-44.24
-26.88
-8.53
7.59
18.99
24.71
25.45
23.07
19.68
16.91
15.55
15.64
16.98
19.42
22.91
27.34
32.27
36.94
40.53
42.54
42.98
42.38
41.43
40.67
40.23
39.87
39.16
37.75
35.50
32.45
28.82
24.86
20.81
16.95
13.50
10.59
8.18
5.99
3.62
0.70
-2.97
-7.33
-12.05
-16.73
-21.03
-24.77
-28.01
-30.98
-34.07
-37.74
-42.47
-48.49
-55.59
-62.90
-68.91
-71.85
-70.30
-63.80
-53.18
-40.22
-26.96
-14.86
-4.26
5.54
15.77
27.45
40.88
55.62
70.66
84.87
97.19
106.78
113.00
115.44
114.09
109.30
101.77
92.41
82.13
71.68
61.67
52.51
44.46
37.48
31.21
24.93
17.82
9.19
-1.20
-13.05
-25.68
-38.32
-50.44
-61.92
-73.17
-84.99
-98.49
-114.80
-134.80
-158.58
-185.03
-211.70
-235.25
-252.42
-261.19
-261.60
-255.69
-246.59
-237.20
-229.04
-221.90
-214.26
-204.19
-190.05
-170.86
-146.22
-116.35
-82.24
-45.85
-9.99
22.28
48.63
68.31
82.22
92.31
100.47
107.72
113.99
118.61
121.14
121.82
121.50
121.00
120.58
119.68
117.28
112.50
105.12
95.82
85.91
76.91
70.02
65.94
64.83
66.33
69.68
73.68
76.77
77.29
73.90
66.09
54.54
40.95
27.60
16.53
8.86
4.39
1.81
-0.65
-4.39
-9.75
-15.99
-21.76
-25.85
-27.77
-27.91
-27.20
-26.82
-27.97
-31.93
-39.83
-51.95
-67.17
-82.60
-94.42
-99.35
-96.29
-87.02
-75.60
-66.67
-63.44
-66.48
-73.45
-80.35
-83.22
-79.70
-69.93
-56.14
-41.53
-28.74
-18.81
-11.25
-4.84
1.13
6.40
10.14
12.25
14.05
18.08
26.62
40.06
56.07
70.41
78.87
79.17
72.06
60.93
50.26
43.70
42.67
45.99
50.55
52.76
50.08
42.18
31.22
21.31
17.10
22.27
38.17
63.26
93.45
123.22
147.09
161.08
163.74
156.46
142.98
128.32
117.25
112.70
114.82
120.95
126.50
126.57
117.63
98.70
71.86
41.78
14.59
-3.43
-7.29
5.89
36.40
81.80
137.20
195.66
249.15
289.80
311.68
312.45
294.14
262.66
225.82
190.67
161.26
137.90
118.01
98.01
75.31
49.22
20.96
-7.19
-32.84
-54.18
-70.24
-80.81
-86.20
-87.08
-84.21
-78.38
-70.33
-60.77
-50.39
-39.94
-30.12
-21.55
-14.70
-9.79
-6.84
-5.74
-6.25
-8.12
-11.07
-14.74
-18.54
-21.52
-22.46
-20.13
-13.93
-4.53
5.87
13.96
16.23
10.21
-4.45
-25.65
-49.26
-70.29
-84.40
-89.32
-85.48
-75.79
-64.57
-56.23
-54.05
-59.38
-71.34
-86.83
-100.88
-107.69
-102.08
-81.51
-47.47
-5.52
36.29
70.19
91.23
98.50
94.45
82.92
67.18
48.94
28.56
6.07
-17.79
-41.05
-60.77
-73.66
-77.03
-69.61
-52.37
-28.67
-3.64
17.03
28.86
29.88
21.23
6.49
-9.74
-23.60
-33.30
-39.39
-44.15
-50.25
-59.55
-72.54
-88.35
-105.29
-121.10
-133.17
-138.76
-135.68
-123.37
-103.76
-81.12
-60.84
-47.30
-42.26
-44.26
-49.90
-55.61
-59.15
-59.87
-57.98
-53.57
-46.28
-35.82
-22.68
-8.33
5.24
16.59
25.49
32.81
39.76
46.93
53.72
58.67
60.10
57.17
50.40
41.73
33.91
29.76
31.18
38.66
50.97
65.45
78.72
87.80
91.16
89.16
83.73
77.33
71.68
67.07
62.38
55.85
46.04
32.57
16.12
-1.95
-20.14
-37.13
-51.81
-63.23
-70.74
-74.19
-74.09
-71.39
-66.96
-61.08
-53.24
-42.58
-28.66
-12.17
4.84
19.33
28.16
29.07
21.24
5.45
-16.27
-41.05
-65.50
-86.06
-99.27
-102.60
-95.33
-79.19
-58.22
-37.41
-20.86
-10.14
-3.95
0.71
6.59
14.57
23.32
30.40
33.91
33.55
30.76
27.72
26.19
26.74
28.83
31.19
32.33
30.88
25.83
16.81
4.44
-9.54
-22.62
-32.41
-37.34
-37.21
-32.79
-25.23
-15.39
-3.81
8.98
22.04
33.91
43.05
48.36
49.45
46.63
40.47
31.56
20.48
7.99
-4.78
-16.53
-26.21
-33.27
-37.58
-39.16
-37.86
-33.67
-27.18
-20.01
-14.61
-13.28
-16.94
-24.55
-33.36
-40.22
-43.07
-41.80
-38.17
-34.70
-33.44
-35.18
-39.35
-44.59
-49.38
-52.53
-53.37
-51.85
-48.47
-44.27
-40.55
-38.47
-38.58
-40.35
-42.28
-42.42
-38.96
-31.02
-18.91
-4.14
10.91
23.57
31.58
33.70
30.14
22.48
13.07
4.35
-1.94
-4.95
-4.73
-1.93
2.42
7.06
10.54
11.48
8.96
2.88
-5.88
-15.83
-25.51
-33.91
-40.56
-45.28
-47.85
-47.92
-45.14
-39.30
-30.30
-17.94
-1.99
17.31
38.43
57.82
70.33
70.78
56.30
28.23
-7.76
-43.43
-70.99
-85.86
-87.78
-80.06
-67.41
-53.85
-41.55
-30.86
-21.25
-12.32
-4.32
1.88
5.30
5.40
2.55
-1.94
-6.05
-7.63
-5.05
2.39
14.30
29.38
45.55
60.13
70.05
72.53
66.07
51.49
32.31
13.99
2.23
0.95
10.96
29.77
52.55
73.70
88.37
93.44
87.96
73.12
51.76
27.84
5.50
-11.67
-21.40
-22.95
-17.00
-5.32
9.66
25.25
39.09
49.55
56.26
60.07
62.61
65.48
69.30
73.37
75.66
73.72
65.67
51.06
31.15
8.46
-14.11
-34.17
-50.39
-62.55
-71.12
-76.89
-80.63
-82.87
-83.84
-83.40
-80.99
-75.75
-66.82
-53.81
-37.34
-19.35
-2.84
8.87
13.28
9.67
-0.35
-13.33
-25.06
-32.07
-32.76
-27.90
-20.06
-12.51
-7.87
-7.34
-10.58
-16.40
-23.49
-31.01
-38.60
-46.00
-52.66
-57.68
-60.11
-59.53
-56.48
-52.23
-48.32
-45.76
-44.57
-43.89
-42.43
-39.14
-33.75
-26.88
-19.75
-13.78
-9.93
-8.39
-8.50
-9.04
-8.63
-6.25
-1.55
4.89
11.66
16.78
18.33
15.02
6.78
-5.14
-18.37
-30.24
-38.57
-42.45
-42.45
-40.26
-37.89
-36.83
-37.49
-39.25
-40.86
-41.10
-39.18
-34.91
-28.39
-19.80
-9.36
2.51
14.79
25.83
33.70
36.85
34.89
28.81
20.87
13.82
10.00
10.65
15.62
23.57
32.46
40.26
45.56
47.83
47.49
45.52
43.00
40.61
38.42
36.10
33.25
29.76
25.97
22.48
19.79
17.98
16.61
14.83
11.85
7.27
1.36
-5.01
-10.70
-14.81
-16.98
-17.59
-17.73
-18.98
-23.11
-31.63
-45.23
-63.17
-83.08
-101.35
-114.09
-118.52
-114.13
-102.94
-88.75
-75.56
-65.98
-60.38
-57.26
-54.49
-50.66
-45.91
-41.74
-40.10
-42.27
-48.22
