1638382078.00
64.000000
-0.00
-0.00
-0.00
-0.00
-0.00
-0.00
-0.00
-0.00
-0.00
-0.00
0.00
0.01
0.01
-0.00
-0.03
-0.05
-0.05
0.00
0.13
0.36
0.66
1.01
1.37
1.72
2.06
2.40
2.79
3.25
3.81
4.44
5.11
5.77
6.39
6.97
7.57
8.24
9.03
10.04
11.20
12.44
13.62
14.68
15.63
16.61
17.85
19.54
21.97
25.00
28.37
31.75
34.91
37.85
40.81
44.22
48.42
53.88
60.33
67.33
74.35
80.99
87.25
93.50
100.36
108.39
118.28
129.73
142.12
154.62
166.54
177.65
188.30
199.70
210.72
223.99
240.57
260.84
283.57
305.46
321.59
326.78
317.48
293.11
256.70
212.85
166.37
120.49
76.07
32.55
-11.01
-54.76
-97.98
-139.31
-178.21
-215.01
-249.85
-281.87
-309.01
-329.02
-341.13
-346.45
-347.27
-345.18
-339.04
-325.13
-300.09
-264.36
-224.24
-190.56
-174.01
-179.99
-206.21
-243.50
-280.63
-308.57
-322.85
-322.38
-307.40
-278.32
-236.40
-185.60
-133.14
-87.61
-54.92
-35.31
-22.54
-7.79
15.53
47.89
82.92
111.15
124.83
122.27
107.96
89.99
75.28
67.14
64.11
61.75
55.60
43.00
25.04
5.86
-8.84
-14.32
-8.93
4.76
21.03
33.96
39.84
38.61
33.80
29.68
28.70
30.39
32.40
32.62
31.47
31.35
34.78
42.33
51.70
59.41
62.62
61.37
57.87
54.71
51.78
46.23
33.90
12.38
-16.12
-46.08
-70.50
-84.84
-87.78
-81.15
-67.54
-49.39
-28.73
-7.88
9.97
21.27
24.56
21.07
13.71
5.26
-3.33
-12.92
-23.53
-32.55
-34.91
-26.55
-7.97
14.56
31.04
33.65
21.45
0.97
-17.38
-25.44
-21.20
-9.35
3.04
10.67
12.49
10.78
8.17
5.03
-0.61
-11.47
-28.05
-47.30
-62.84
-68.51
-60.71
-40.72
-14.03
11.67
29.62
36.10
31.16
18.37
2.90
-10.53
-18.96
-21.74
-19.96
-15.55
-10.07
-4.17
2.47
9.93
18.12
25.92
31.51
33.38
30.53
22.79
10.46
-6.69
-28.98
-55.24
-81.41
-100.54
-105.00
-90.20
-57.83
-17.01
19.36
39.89
40.10
25.09
6.63
-2.68
4.56
27.16
56.94
83.38
98.75
101.00
92.05
75.66
54.37
29.41
2.00
-24.57
-45.21
-54.48
-49.98
-34.15
-13.07
5.99
18.00
22.06
20.59
17.49
15.77
16.45
18.40
19.66
18.58
14.92
9.69
5.53
5.31
10.76
21.81
35.84
48.83
56.34
55.02
43.56
23.31
-1.68
-25.97
-43.28
-49.27
-42.25
-24.32
-0.19
24.45
44.89
58.23
63.40
60.73
51.55
37.43
20.27
2.28
-14.01
-26.71
-34.32
-36.59
-34.22
-28.79
-22.31
-16.68
-13.23
-12.05
-12.74
-14.47
-17.67
-22.93
-31.11
-41.70
-52.68
-61.61
-66.47
-67.03
-64.22
-59.55
-53.73
-45.96
-34.18
-17.09
4.69
28.40
49.97
65.87
74.06
73.85
65.73
51.18
33.35
16.85
7.52
10.18
25.67
49.74
73.95
89.15
90.09
78.03
58.86
39.65
23.39
8.24
-10.15
-34.72
-63.23
-88.60
-101.53
-95.48
-69.64
-30.28
12.05
46.20
63.94
63.18
47.47
25.66
8.14
3.70
15.52
39.77
67.60
88.26
94.61
86.11
68.39
49.76
37.07
31.88
30.53
26.70
14.65
-7.23
-36.42
-66.67
-91.02
-105.06
-108.34
-104.51
-98.45
-93.70
-89.23
-80.56
-62.65
-34.29
-0.59
29.13
45.62
46.14
35.66
24.16
20.14
24.60
31.27
30.58
16.82
-8.11
-35.43
-55.52
-62.91
-59.00
-50.43
-43.87
-42.65
-45.22
-48.16
-48.45
-45.33
-39.79
-32.64
-23.24
-9.21
11.30
38.88
71.26
103.68
130.28
146.59
151.55
147.49
139.83
134.11
132.78
134.32
133.64
125.09
105.55
76.16
41.58
8.61
-16.95
-31.95
-36.16
-32.70
-26.53
-23.46
-27.91
-40.91
-59.24
-76.71
-86.80
-86.09
-75.74
-60.76
-47.99
-42.29
-44.95
-53.70
-64.29
-72.63
-75.97
-73.29
-65.14
-52.42
-36.84
-20.44
-5.74
4.48
8.83
7.72
3.79
0.84
2.14
8.53
17.60
24.37
24.00
13.45
-7.04
-33.87
-61.52
-84.63
-98.94
-102.55
-95.86
-80.63
-59.82
-36.00
-11.34
12.44
34.46
53.56
68.30
77.18
78.89
73.23
61.37
46.61
33.08
24.44
22.01
23.43
24.13
19.49
8.01
-6.99
-18.70
-20.58
-10.20
8.52
27.23
37.42
35.63
24.90
13.14
7.75
10.91
18.64
23.09
18.77
5.87
-9.64
-20.29
-21.87
-16.23
-9.60
-7.73
-12.43
-20.54
-26.59
-27.05
-22.59
-17.36
-15.72
-19.43
-26.38
-32.09
-31.88
-22.91
-5.27
18.30
42.99
63.40
74.80
75.50
67.05
54.05
41.22
31.62
25.41
20.66
15.40
9.23
3.75
1.07
2.32
6.53
11.05
13.36
12.06
7.26
0.02
-8.43
-17.88
-28.74
-41.31
-54.90
-66.52
-72.21
-67.78
-51.59
-25.62
4.29
30.31
45.26
45.27
31.29
7.97
-17.56
-39.12
-52.58
-56.98
-53.52
-45.43
-36.41
-30.71
-32.03
-42.97
-63.15
-88.58
-112.14
-125.51
-122.66
-102.68
-69.86
-32.66
0.62
24.06
35.78
37.26
31.77
23.42
15.67
12.00
14.39
23.55
37.68
53.09
66.05
74.03
77.77
80.25
85.13
94.65
108.08
121.65
130.17
129.42
117.64
96.25
68.85
39.92
12.91
-10.34
-29.10
-43.82
-54.91
-63.51
-71.12
-79.40
-88.45
-95.96
-96.65
-84.18
-54.90
-10.66
39.94
84.55
111.65
114.86
95.79
61.82
23.37
-10.42
-33.93
-45.99
-49.07
-47.77
-47.92
-54.02
-68.25
-88.38
-109.13
-123.60
-126.56
-116.13
-94.17
-64.84
-31.90
1.86
34.96
65.39
90.03
104.82
106.98
97.07
80.09
64.11
56.54
61.33
77.33
99.30
121.15
138.03
147.35
147.66
138.20
118.50
90.29
58.89
31.76
15.46
11.02
12.49
9.11
-7.74
-39.16
-76.71
-106.94
-118.13
-106.72
-79.06
-46.86
-21.33
-7.43
-3.48
-4.02
-4.80
-5.59
-8.76
-16.77
-28.76
-39.72
-43.16
-34.71
-15.28
8.57
27.54
33.56
23.72
1.03
-26.97
-51.79
-67.77
-73.28
-70.80
-64.93
-60.01
-58.19
-58.50
-57.81
-52.35
-39.53
-19.38
5.59
30.67
51.24
63.63
67.04
63.15
55.39
47.39
41.33
37.21
33.33
27.35
18.37
7.05
-4.70
-14.64
-21.60
-25.13
-25.68
-24.38
-21.93
-19.24
-17.21
-17.31
-20.75
-27.87
-37.76
-47.76
-54.15
-53.99
-45.91
-30.87
-11.37
8.88
26.36
38.37
43.55
41.60
33.59
22.03
10.27
2.63
2.72
11.76
27.87
45.78
58.68
61.00
50.61
29.24
2.04
-25.70
-49.71
-68.30
-81.39
-89.25
-91.49
-86.82
-74.93
-57.15
-36.64
-17.48
-2.77
5.78
8.23
5.20
-2.87
-15.02
-29.55
-43.50
-54.02
-59.11
-58.91
-54.89
-49.22
-43.22
-37.28
-31.11
-25.37
-21.65
-20.76
-21.81
-20.90
-12.95
6.02
35.76
71.15
104.23
127.15
135.76
130.35
115.80
99.08
86.17
80.77
83.11
90.98
100.82
108.99
112.48
109.03
97.34
77.33
51.42
24.59
3.53
-6.89
-5.53
2.99
9.99
6.73
-11.77
-42.99
-78.33
-106.88
-120.47
-117.31
-102.06
-83.53
-69.88
-65.64
-70.09
-78.91
-86.54
-88.60
-83.78
-73.25
-59.84
-45.50
-30.81
-15.09
2.36
21.06
38.59
51.59
57.38
55.49
49.08
42.83
41.33
46.25
55.17
62.65
62.81
52.15
30.59
1.53
-29.45
-56.38
-73.89
-78.27
-68.57
-47.46
-20.83
3.97
21.42
29.64
30.74
29.05
27.94
27.98
27.04
21.86
10.12
-7.73
-29.41
-50.99
-68.76
-80.15
-83.56
-79.00
-67.23
-50.07
-29.12
-6.34
16.99
39.69
59.39
73.31
78.50
73.48
59.21
39.29
18.78
2.69
-5.60
-5.82
-0.15
7.53
13.35
14.84
11.94
6.25
-0.03
-4.66
-7.25
-8.36
-9.97
-13.58
-19.76
-26.84
-31.72
-31.48
-24.26
-11.17
5.15
21.17
34.88
46.46
57.23
68.54
79.56
87.79
90.43
86.27
77.29
67.18
59.84
56.83
56.83
56.43
52.31
42.27
26.42
6.75
-14.10
-33.02
-48.03
-57.91
-63.19
-65.54
-66.81
-67.09
-64.19
-54.94
-36.81
-11.21
16.88
40.55
54.74
58.13
53.27
43.68
30.45
12.14
-13.35
-45.46
-78.80
-105.04
-117.22
-113.88
-99.24
-80.53
-62.11
-43.98
-22.96
2.14
27.25
43.82
43.02
22.37
-12.24
-49.03
-76.50
-89.41
-89.95
-84.79
-79.76
-76.65
-72.96
-64.95
-50.44
-29.93
-5.57
19.88
44.06
65.25
81.96
93.43
99.85
102.38
101.89
98.36
90.72
78.03
61.46
44.73
32.98
29.77
34.27
41.73
45.22
40.15
26.17
7.44
-9.93
-21.48
-26.28
-26.93
-27.48
-30.83
-35.91
-38.24
-32.42
-15.38
10.62
38.77
60.27
68.78
62.33
43.96
19.27
-6.27
-29.07
-47.53
-61.39
-70.36
-73.46
-69.55
-58.55
-41.75
-22.12
-2.65
14.07
27.38
38.38
49.56
62.75
77.73
90.78
95.27
85.04
57.12
14.71
-33.60
-77.03
-106.06
-116.21
-108.68
-89.31
-65.67
-44.54
-29.35
-20.28
-15.68
-14.48
-17.35
-26.66
-43.87
-66.09
-85.88
-93.50
-82.20
-53.35
-17.02
12.11
22.41
11.82
-10.73
-30.58
-35.04
-19.85
9.63
43.14
70.54
86.42
90.42
85.33
74.40
60.16
43.56
25.21
6.05
-12.02
-25.69
-31.21
-25.66
-8.95
15.34
40.53
59.55
68.33
67.03
59.60
51.53
46.37
44.55
44.57
45.00
46.51
51.33
60.85
73.45
84.09
86.51
77.06
57.39
33.86
13.21
-1.60
-13.99
-31.10
-58.40
-93.88
-127.67
-146.16
-139.72
-108.58
-62.57
-15.75
20.12
40.64
48.70
50.15
49.10
45.65
36.99
20.73
-1.88
-25.10
-41.06
-43.97
-33.29
-14.57
2.52
9.30
2.43
-14.24
-32.33
-43.48
-43.97
-36.38
-26.80
-21.58
-23.84
-32.76
-45.18
-57.72
-67.86
-74.24
-76.21
-73.29
-65.85
-55.60
-44.64
-34.83
-26.71
-18.65
-9.05
2.36
13.73
21.63
23.23
17.85
7.45
-4.50
-14.45
-20.34
-22.08
-20.68
-18.28
-16.78
-16.60
-15.68
-9.63
6.79
36.73
78.62
125.20
165.10
187.18
185.26
161.01
122.82
81.99
47.90
25.03
12.67
6.62
2.78
-1.55
-6.61
-11.37
-14.73
-17.20
-20.09
-24.11
-28.10
-28.23
-20.44
-2.89
21.73
46.76
64.63
69.81
61.71
43.89
21.82
-0.56
-21.53
-41.68
-61.20
-78.54
-90.37
-92.47
-82.54
-61.50
-33.81
-6.12
15.21
26.02
25.98
18.21
7.93
0.05
-2.41
1.39
10.54
23.38
37.29
48.75
53.67
48.68
32.82
8.72
-17.70
-40.32
-55.85
-65.38
-73.79
-86.77
-106.48
-129.91
-149.92
-158.61
-151.66
-130.03
-100.01
-69.77
-45.94
-31.24
-23.78
-18.91
-11.45
2.16
22.61
47.55
71.60
88.25
91.39
78.69
53.54
24.88
4.89
3.58
23.72
58.54
95.02
120.04
127.50
121.21
111.75
108.88
114.83
122.85
120.75
99.03
57.28
5.86
-39.15
-64.54
-66.56
-52.92
-36.80
-28.89
-30.62
-34.47
-29.36
-9.28
22.12
52.66
68.59
62.55
38.14
7.36
-15.87
-23.52
-16.49
-3.33
6.02
4.85
-7.10
-25.39
-43.96
-58.18
-67.03
-71.84
-75.16
-78.41
-81.28
-81.90
-78.31
-69.72
-56.77
-41.27
-24.82
-8.53
7.28
21.13
30.33
31.73
23.88
9.20
-6.18
-14.80
-11.43
3.65
24.91
44.52
56.49
59.13
55.71
51.25
50.29
53.85
60.06
65.59
66.63
60.79
46.60
24.93
-1.15
-25.98
-43.50
-49.83
-45.24
-34.83
-25.93
-24.66
-32.27
-45.49
-58.48
-66.72
-69.75
-70.09
-71.40
-74.90
-79.02
-80.80
-78.94
-74.55
-69.74
-65.56
-59.90
-48.85
-28.22
2.43
39.54
76.20
104.93
121.06
123.57
115.62
101.98
88.33
79.28
77.02
80.97
86.91
88.70
80.46
60.12
29.91
-4.15
-35.59
-60.23
-76.86
-86.33
-89.02
-83.87
-68.52
-41.75
-6.36
30.64
59.81
73.89
70.39
53.19
29.45
5.94
-13.73
-29.80
-43.56
-55.17
-61.73
-59.75
-47.27
-27.02
-6.05
7.57
8.56
-2.24
-19.00
-34.14
-43.11
-45.60
-44.74
-43.94
-43.33
-39.62
-27.81
-4.76
28.05
64.47
95.76
114.10
115.39
101.28
77.84
53.58
35.66
26.89
26.16
29.40
32.69
33.41
31.41
27.20
22.11
17.11
13.43
13.07
16.92
24.39
32.34
36.36
32.20
18.91
-0.80
-21.58
-37.43
-45.17
-44.34
-37.02
-26.07
-14.11
-3.30
4.84
8.67
7.20
-0.62
-14.49
-32.40
-51.18
-66.65
-75.74
-77.70
-75.40
-73.41
-76.18
-84.44
-94.82
-100.92
-96.37
-78.67
-50.48
-20.13
2.43
8.82
-3.00
-28.22
-56.77
-76.86
-80.75
-66.78
-40.04
-8.83
19.30
40.26
53.88
61.10
62.83
58.63
49.14
37.30
28.41
27.59
36.67
52.74
69.38
80.63
83.27
78.83
71.00
63.74
58.37
53.58
47.62
39.40
30.20
22.07
17.26
16.13
17.22
18.14
16.56
11.67
3.64
-6.10
-16.74
-28.18
-41.32
-56.87
-73.85
-89.63
-99.63
-99.84
-88.58
-68.00
-43.00
-19.77
-3.76
2.55
-0.93
-11.35
-25.21
-38.16
-46.06
-45.88
-35.94
-17.29
6.84
30.99
50.47
62.58
68.15
70.22
72.00
74.78
76.91
75.74
68.66
55.66
38.44
20.21
4.16
-8.01
-16.25
-21.56
-25.56
-30.09
-36.26
-43.66
-50.37
-53.84
-52.28
-45.67
-36.41
-28.45
-25.11
-27.37
-33.38
-39.43
-41.82
-38.67
-30.48
-19.58
-8.94
-1.02
3.26
4.26
2.71
-0.44
-4.90
-9.79
-13.76
-14.99
-12.06
-5.40
2.45
7.67
7.46
1.62
-6.57
-12.08
-10.09
1.68
22.12
47.42
72.34
91.65
101.28
99.77
88.25
70.47
51.62
36.44
27.40
24.47
26.05
30.00
34.69
38.86
40.92
39.25
33.16
23.62
13.39
6.08
4.01
6.74
11.66
14.71
12.69
4.47
-8.47
-23.04
-35.61
-43.77
-47.62
-49.06
-51.03
-55.32
-61.42
-65.46
-62.49
-49.40
-26.97
-0.42
23.18
38.54
44.19
42.30
36.66
30.44
24.75
18.76
11.16
1.43
-9.75
-21.20
-32.08
-42.59
-52.88
-62.91
-71.26
-74.83
-70.17
-55.00
-30.67
-2.75
20.64
32.26
29.96
17.79
3.54
-5.40
-6.41
-2.10
2.41
3.40
1.31
-0.49
0.70
4.57
7.29
5.02
-2.69
-11.70
-16.01
-12.06
-1.75
8.01
9.12
-2.91
-25.42
-49.43
-63.40
-59.15
-35.78
0.54
39.37
71.48
92.50
103.00
105.58
101.53
89.60
67.89
36.98
1.58
-30.79
-54.27
-66.66
-70.09
-68.25
-63.39
-55.73
-44.27
-29.65
-14.37
-1.07
9.53
19.31
31.12
45.30
58.11
63.57
57.13
39.36
16.41
-2.65
-10.16
-4.05
11.81
29.53
42.16
46.12
41.98
32.62
20.75
7.71
-6.17
-19.14
-27.97
-28.78
-20.69
-6.90
5.60
9.58
2.85
-10.95
-23.73
-28.37
-22.92
-11.95
-2.96
-1.62
-9.15
-21.62
-33.32
-40.28
-42.35
-42.13
-42.32
-43.16
-41.58
-33.57
-16.86
6.37
30.40
47.69
52.95
45.52
29.60
12.78
2.21
1.81
10.27
22.29
30.77
30.17
19.37
1.87
-15.43
-26.32
-27.08
-18.51
-5.09
7.29
13.09
9.55
-3.01
-21.98
-43.16
-61.03
-69.89
-64.84
-43.52
-8.23
33.70
70.81
92.35
91.96
71.26
39.53
9.69
-6.68
-4.88
11.82
34.02
51.35
57.29
51.09
36.72
19.57
4.17
-8.21
-18.22
-26.60
-33.10
-35.58
-32.28
-23.29
-11.90
-3.30
-2.42
-10.16
-23.09
-34.91
-39.47
-34.15
-20.52
-3.20
13.71
27.99
39.18
47.50
52.01
51.62
45.36
34.25
20.43
6.67
-4.41
-10.75
-10.65
-3.56
9.89
26.14
39.38
43.04
32.39
7.28
-27.27
-62.47
-90.12
-105.57
-109.81
-106.89
-101.54
-96.14
-89.46
-78.40
-60.58
-37.91
-16.30
-4.42
-8.90
-30.20
-61.72
-91.96
-110.00
-110.09
-94.44
-70.61
-47.98
-32.67
-25.32
-21.66
-15.30
-1.90
19.09
43.87
67.32
85.06
94.94
97.00
91.52
78.56
57.22
27.71
-8.10
-45.29
-76.47
-94.41
-93.93
-74.89
-41.77
-3.04
32.28
57.57
70.61
73.94
72.98
73.66
78.87
87.90
96.89
102.09
101.94
97.68
92.13
87.44
83.74
78.71
69.98
56.83
40.68
25.06
13.26
7.26
6.71
9.79
14.05
18.08
22.56
29.75
42.50
61.46
83.12
99.20
100.16
79.88
40.74
-5.48
-42.71
-57.99
-48.62
-23.22
3.21
17.67
14.91
-2.39
-27.89
-56.75
-87.34
-119.88
-152.06
-176.88
-185.16
-170.14
-132.95
-83.57
-36.63
-4.53
8.20
6.44
0.49
0.32
10.83
29.94
50.61
64.41
65.59
52.43
27.48
-3.68
-34.98
-61.07
-78.50
-85.57
-82.38
-69.61
-48.00
-18.09
19.58
62.35
104.80
138.76
156.30
153.05
130.45
96.21
60.87
33.56
17.24
7.88
-3.04
-22.70
-52.31
-85.07
-109.09
-114.15
-96.83
-62.79
-23.22
9.89
28.86
32.45
24.14
9.60
-5.86
-17.46
-21.19
-13.54
6.85
36.94
68.74
90.39
90.68
63.28
11.00
-54.03
-113.72
-149.94
-152.10
-120.42
-66.29
-7.34
39.34
63.26
62.87
44.09
16.72
-10.05
-29.06
-35.91
-28.34
-6.95
23.55
53.92
71.63
65.58
30.51
-29.46
-101.22
-166.95
-210.09
-220.77
-197.90
-149.03
-86.55
-23.83
28.61
64.76
83.47
87.63
81.77
70.28
55.86
40.21
24.74
12.15
6.72
12.89
33.16
65.61
104.31
141.49
170.73
188.66
194.83
189.77
172.46
141.29
96.20
41.80
-12.21
-53.78
-73.70
-70.27
-49.92
-24.99
-8.17
-7.89
-25.38
-55.26
-87.51
-110.89
-116.15
-98.78
-61.75
-14.87
27.14
49.64
43.68
9.97
-40.62
-91.31
-125.71
-134.81
-119.91
-92.36
-67.44
-57.05
-64.16
-81.41
-95.80
-95.37
-75.73
-41.23
-2.17
31.66
56.25
73.76
89.25
104.90
117.39
118.48
101.08
64.74
18.58
-22.06
-43.63
-41.12
-20.95
2.91
17.30
16.72
5.75
-5.21
-6.64
4.19
22.81
40.71
51.52
53.84
51.15
48.66
50.22
56.60
65.81
75.29
82.33
84.85
81.70
72.13
56.76
37.32
17.16
-0.25
-11.94
-17.50
-18.71
-18.84
-21.47
-28.59
-39.63
-52.44
-63.96
-72.07
-75.57
-74.38
-68.75
-58.95
-45.54
-30.42
-16.26
-6.07
-1.19
-0.55
-0.65
2.09
8.46
16.01
20.09
16.78
5.38
-11.13
-27.81
-40.48
-47.56
-50.56
-51.46
-51.22
-48.37
-39.85
-23.10
1.83
31.53
60.33
82.73
94.82
94.93
83.29
61.56
32.49
0.77
-27.84
-47.07
-52.35
-42.75
-22.36
1.18
19.41
25.52
17.04
-4.17
-32.03
-58.81
-77.02
-81.69
-71.90
-50.97
-25.58
-3.06
11.38
16.11
12.53
3.13
-9.71
-24.83
-40.64
-54.40
-61.76
-59.15
-45.35
-23.39
0.44
19.51
29.71
31.10
27.24
22.86
21.24
23.00
26.42
28.88
28.73
25.49
20.50
15.52
11.77
9.67
9.06
9.61
11.81
16.32
23.30
31.75
39.81
45.03
46.39
44.69
42.52
41.85
43.24
44.57
42.52
34.78
22.14
8.80
0.76
3.07
17.00
39.16
63.17
82.16
91.33
88.74
74.99
50.79
17.24
-24.43
-70.42
-114.03
-146.09
-158.46
-147.56
-116.34
-73.83
-31.02
3.41
25.85
37.18
40.24
37.37
28.78
14.48
-4.31
-23.98
-39.22
-45.80
-42.11
-30.69
-16.69
-6.63
-5.67
-16.16
-36.53
-61.46
-84.26
-98.47
-100.69
-90.31
-69.87
-42.76
-12.86
16.49
41.99
60.51
69.86
69.44
61.53
49.93
38.94
31.25
27.45
26.35
25.86
23.95
18.70
9.89
-0.84
-10.14
-14.54
-12.79
-7.35
-3.62
-6.51
-17.61
-33.41
-46.97
-52.34
-47.39
-35.54
-22.26
-12.02
-5.01
2.25
14.22
32.79
55.85
78.84
96.41
105.39
105.23
97.69
85.18
70.15
54.06
37.73
22.49
9.45
0.67
-2.35
0.93
9.55
20.90
31.45
37.47
37.25
30.77
20.01
7.64
-4.75
-16.85
-29.71
-43.73
-58.52
-72.28
-83.03
-89.54
-92.23
-92.85
-92.86
-92.89
-91.70
-86.91
-76.50
-60.24
-39.51
-17.43
2.09
15.87
21.48
19.01
10.52
0.19
-6.44
-4.40
9.41
33.77
63.86
92.05
111.47
118.28
113.02
99.13
80.93
61.87
43.14
25.30
8.33
-6.91
-20.09
-31.36
-41.53
-51.03
-57.69
-56.95
-43.66
-16.22
21.28
58.90
84.92
91.20
76.51
47.24
12.92
-17.61
-39.46
-51.82
-55.73
-53.32
-46.74
-39.02
-32.63
-29.33
-28.06
-25.47
-17.96
-4.10
12.86
26.68
30.32
20.04
-2.97
-32.74
-61.31
-82.35
-92.72
-93.69
-88.39
-80.36
-71.08
-59.71
-45.04
-27.55
-10.79
0.59
3.27
-1.28
-6.46
-4.08
11.28
38.11
68.88
93.27
104.39
100.99
87.56
70.47
54.05
39.12
23.36
5.04
-15.63
-35.48
-49.86
-55.03
-49.99
-37.37
-22.30
-10.90
-7.11
-11.48
-20.42
-27.98
-28.78
-20.31
-4.29
14.78
31.11
39.41
36.82
23.69
4.24
-15.05
-26.33
-23.61
-4.35
28.71
68.05
103.73
127.10
134.14
125.58
106.46
82.32
57.35
33.49
11.20
-9.23
-26.72
-38.98
-44.53
-43.19
-37.05
-29.01
-21.10
-13.50
-4.74
6.35
19.30
31.53
39.45
39.82
31.79
17.08
-1.28
-20.30
-38.38
-55.15
-70.07
-81.72
-87.44
-84.78
-72.88
-54.50
-35.11
-21.72
-18.68
-25.02
-33.81
-35.33
-22.76
3.77
35.61
60.51
68.48
56.42
29.33
-2.53
-28.87
-43.21
-44.26
-35.02
-20.34
-5.53
5.54
10.43
9.18
4.59
1.64
5.70
19.78
42.28
66.49
83.42
85.48
69.25
37.63
-1.80
-39.65
-68.54
-85.67
-93.45
-96.73
-99.52
-102.84
-103.79
-98.48
-84.67
-63.66
-39.32
-16.50
1.31
12.81
17.93
17.22
11.06
1.16
-9.31
-15.75
-14.26
-3.86
12.36
29.26
42.43
50.19
54.08
57.33
61.93
67.46
72.44
75.71
77.62
80.49
85.96
94.26
102.77
107.22
103.97
91.30
70.81
46.42
23.54
6.85
-0.97
0.13
7.21
16.06
22.11
22.22
14.52
-1.42
-25.01
-53.89
-83.14
-105.46
-113.60
-104.07
-80.24
-51.47
-29.28
-21.46
-28.27
-42.71
-55.73
-61.34
-59.53
-54.79
-51.72
-51.28
-50.44
-44.94
-33.01
-17.15
-2.27
7.32
10.67
10.14
8.82
8.07
6.49
1.26
-9.29
-23.94
-38.30
-46.67
-44.04
-28.54
-2.35
28.59
56.26
72.93
73.18
56.39
27.02
-5.47
-30.00
-37.84
-26.32
-0.31
30.70
57.09
73.38
79.60
79.51
76.40
70.58
58.89
37.09
4.18
-35.81
-74.44
-102.95
-116.29
-115.02
-104.49
-91.52
-81.29
-75.67
-73.32
-70.48
-63.44
-49.80
-29.74
-5.87
18.41
40.34
58.78
73.23
83.39
88.25
86.49
76.92
59.87
37.81
14.33
-5.95
-19.48
-23.66
-16.96
0.45
27.00
58.31
88.02
109.07
117.13
112.32
99.72
86.93
80.58
83.67
94.17
106.49
112.93
107.41
87.22
54.82
16.42
-19.96
-47.43
-63.17
-68.66
-69.11
-69.91
-74.82
-83.42
-92.32
-97.24
-95.64
-88.44
-79.14
-71.97
-69.14
-69.88
-70.65
-67.13
-56.20
-37.52
-14.56
7.22
21.88
25.95
19.85
7.66
-4.16
-10.17
-7.82
0.91
11.52
18.64
18.65
11.01
-2.35
-17.50
-29.73
-33.69
-24.92
-0.75
37.14
82.81
125.90
155.12
161.81
143.30
104.55
56.25
11.33
-19.84
-32.35
-27.48
-11.56
7.89
24.38
34.71
38.32
35.48
25.73
8.26
-16.51
-45.18
-71.37
-88.37
-91.91
-82.40
-64.27
-44.05
-27.50
-18.14
-17.70
-26.41
-44.25
-69.42
-98.51
-125.71
-144.74
-150.66
-141.64
-119.26
-87.56
-51.50
-15.85
15.13
37.40
48.17
46.68
35.31
19.77
8.26
8.11
23.22
51.94
88.15
123.59
150.26
163.80
163.39
151.37
130.47
103.08
70.87
35.24
-1.06
-34.71
-61.71
-79.18
-85.78
-82.12
-70.77
-55.58
-41.20
-32.07
-31.71
-40.40
-54.56
-67.48
-71.70
-62.68
-40.80
-11.39
18.88
45.00
66.08
83.59
98.26
107.94
107.00
90.93
60.02
21.81
-11.70
-29.40
-26.86
-8.60
15.30
33.79
40.72
36.97
28.39
22.31
22.64
27.76
31.74
28.02
13.11
-10.61
-36.13
-55.30
-62.72
-58.45
-47.20
-35.07
-25.34
-18.26
-11.91
-5.29
-0.63
-1.50
-10.54
-26.72
-45.76
-62.57
-74.22
-80.79
-84.09
-85.50
-83.49
-75.80
-61.57
-42.45
-22.20
-3.84
12.03
27.46
43.97
60.20
71.16
71.27
58.40
35.90
11.85
-5.06
-9.58
-2.75
9.89
20.49
22.90
15.62
1.19
-14.80
-25.89
-27.35
-18.24
-1.65
16.04
27.73
28.80
19.12
3.31
-11.74
-20.50
-21.40
-16.22
-8.83
-2.94
0.03
-0.10
-1.74
-3.18
-2.80
0.56
7.02
15.97
25.33
33.00
36.72
35.83
31.32
25.20
19.78
16.41
15.62
17.28
21.38
26.93
31.73
32.32
24.52
5.86
-22.51
-55.29
-84.70
-102.56
-104.38
-90.05
-63.67
-32.25
-2.20
21.44
36.32
41.66
38.45
28.96
16.92
7.49
4.90
11.59
26.14
43.64
57.34
62.04
56.11
42.44
27.72
18.98
20.67
32.34
48.36
60.72
61.68
47.62
20.12
-13.94
-45.92
-67.84
-75.89
-71.25
-58.44
-43.34
-30.26
-21.05
-15.00
-10.93
-7.95
-6.62
-7.67
-10.13
-11.10
-6.64
5.17
21.78
35.92
40.30
31.83
14.69
-1.65
-7.68
0.23
17.17
32.41
35.79
23.10
-2.00
-30.73
-54.28
-67.98
-71.96
-68.90
-61.30
-50.47
-37.07
-22.53
-9.97
-2.90
-3.85
-11.86
-22.35
-28.28
-23.48
-6.07
19.87
45.71
62.07
62.84
48.19
24.21
0.59
-14.37
-17.35
-10.27
0.67
8.93
10.90
7.16
1.36
-2.43
-2.36
0.16
1.78
-0.21
-5.30
-9.93
-10.04
-4.47
2.74
4.24
-6.74
-30.87
-61.03
-84.17
-88.16
-68.88
-33.30
3.07
24.35
23.06
3.84
-19.98
-33.34
-27.89
-5.60
24.23
50.32
65.72
69.82
66.47
59.84
51.78
42.08
30.20
17.33
6.11
-0.40
-0.38
6.02
16.70
28.21
35.97
34.49
19.05
-12.48
-56.83
-105.40
-146.42
-169.24
-168.05
-143.81
-102.64
-52.66
-1.65
45.39
85.75
117.89
140.70
153.37
155.89
150.00
139.28
127.78
118.11
109.75
99.27
82.10
55.01
19.07
-19.73
-52.35
-71.06
-72.89
-61.35
-45.11
-33.12
-31.03
-38.82
-52.19
-65.35
-74.11
-77.08
-75.47
-70.79
-63.41
-52.64
-37.85
-20.34
-3.48
8.75
14.03
13.19
9.61
7.11
7.29
9.10
9.68
7.37
3.10
-0.05
1.18
8.24
19.99
32.99
43.67
50.28
52.64
52.20
50.23
48.20
47.43
49.17
54.04
61.76
70.69
78.49
83.12
82.82
76.61
63.45
42.89
16.32
-12.56
-37.39
-51.82
-52.10
-40.53
-24.65
-13.87
-14.41
-26.60
-45.52
-65.36
-83.57
-100.80
-118.98
-137.66
-152.36
-157.21
-148.18
-126.26
-97.30
-68.93
-46.46
-30.44
-17.33
-2.87
14.52
32.99
48.17
56.90
59.04
57.55
56.66
58.83
63.62
67.82
68.49
64.68
58.18
51.96
48.46
48.25
50.69
55.45
62.19
70.51
77.78
79.64
71.79
52.93
27.28
3.27
-10.29
-9.30
3.47
19.87
30.75
30.61
19.42
1.99
-15.67
-28.79
-35.80
-37.75
-37.48
-37.92
-40.91
-46.85
-54.06
-60.48
-63.69
-63.09
-59.22
-54.19
-50.20
-47.88
-46.56
-44.07
-39.35
-32.56
-25.94
-22.48
-23.38
-27.57
-30.88
-29.02
-18.91
-1.27
19.76
38.01
48.08
47.70
38.24
24.56
11.61
2.94
-0.66
-0.32
1.97
4.49
6.46
6.53
3.98
-1.85
-10.15
-18.85
-25.29
-27.28
-24.47
-17.24
-7.21
4.35
16.33
27.38
36.36
41.54
41.89
36.49
25.91
11.24
-4.85
-19.21
-28.27
-28.67
-19.57
-2.20
19.08
39.17
53.91
61.40
62.13
57.81
50.64
42.23
34.60
29.51
28.18
30.21
33.15
32.93
25.07
7.76
-17.81
-46.55
-71.67
-86.96
-89.37
-80.45
-65.35
-51.21
-43.20
-43.50
-49.78
-57.72
-63.41
-64.85
-63.31
-60.85
-59.53
-58.91
-57.16
-52.11
-42.65
-29.81
-15.91
-3.64
5.52
11.25
14.70
17.52
22.04
30.82
45.76
67.76
94.85
122.08
141.78
146.28
130.89
97.39
54.94
16.97
-3.50
-0.03
25.06
60.86
93.26
110.82
108.88
90.34
62.15
31.76
2.80
-24.51
-51.43
-77.68
-99.43
-111.19
-109.12
-94.02
-72.16
-53.26
-45.38
-50.89
-65.37
-79.62
-84.70
-77.14
-60.25
-42.57
-33.00
-36.44
-51.14
-69.58
-82.36
-82.45
-68.13
-43.35
-15.67
7.46
22.28
29.47
32.63
35.98
40.83
45.56
46.51
41.36
31.28
20.95
15.84
18.84
28.42
38.84
43.67
39.58
27.76
13.39
1.74
-5.04
-8.53
-12.09
-17.48
-23.02
-24.86
-20.24
-9.86
2.13
10.96
14.65
15.41
17.99
26.36
40.79
57.49
71.19
78.19
78.86
76.47
75.05
76.09
78.50
79.44
76.14
67.15
52.68
34.29
14.18
-5.19
-20.95
-30.87
-33.38
-28.39
-17.80
-5.56
3.41
4.91
-2.45
-16.01
-30.21
-37.94
-34.49
-19.21
4.10
28.35
46.52
54.00
49.88
35.89
15.25
-9.03
-33.75
-56.09
-72.95
-82.18
-83.41
-78.32
-70.16
-62.07
-55.99
-51.76
-48.22
-44.47
-41.04
-39.90
-43.91
-54.37
-69.97
-86.71
-98.91
-101.66
-93.36
-75.79
-53.99
-33.60
-18.41
-9.09
-2.78
4.68
16.31
32.41
50.97
68.67
83.22
93.74
101.23
106.88
111.16
114.15
115.60
115.58
113.99
110.39
102.97
90.11
71.46
49.97
30.75
19.40
18.31
25.38
34.95
41.30
41.36
36.15
29.31
24.37
23.13
24.63
26.68
26.86
23.26
15.10
2.80
-11.54
-24.85
-34.17
-37.71
-36.28
-32.74
-30.68
-32.63
-39.06
-49.03
-61.10
-74.87
-90.41
-107.94
-126.70
-144.50
-158.17
-164.05
-158.67
-140.12
-108.71
-68.30
-25.88
10.81
35.59
46.93
47.45
42.42
36.05
29.91
22.95
13.22
0.64
-12.59
-23.19
-29.15
-30.91
-30.84
-30.47
-28.92
-22.89
-9.78
9.60
30.01
44.04
46.40
36.90
21.01
6.09
-1.81
-0.74
7.06
18.29
30.80
44.50
59.91
76.40
91.20
99.86
99.07
88.13
70.17
50.35
34.31
25.03
21.66
19.78
13.70
0.35
-19.16
-38.68
-51.11
-51.60
-40.85
-24.61
-10.34
-3.34
-4.64
-11.47
-19.32
-25.17
-28.13
-29.74
-32.70
-39.43
-50.08
-61.29
-67.05
-60.40
-37.71
-1.82
37.75
68.55
81.84
76.41
59.37
40.53
26.92
19.67
15.15
9.73
2.48
-3.97
-7.36
-7.84
-8.67
-12.85
-20.88
-29.41
-33.61
-31.11
-23.14
-14.22
-8.83
-9.21
-14.03
-20.58
-25.96
-28.54
-28.09
-25.19
-21.24
-17.27
-14.09
-11.22
-7.18
0.32
13.25
31.07
50.86
67.58
76.72
76.64
69.21
59.31
51.45
47.51
45.62
42.30
34.15
21.01
5.75
-7.73
-16.94
-22.62
-28.23
-37.28
-50.14
-64.25
-74.66
-77.60
-72.25
-60.76
-47.33
-35.03
-25.20
-17.25
-10.39
-4.45
0.10
2.59
3.78
5.60
10.44
18.84
28.47
34.37
31.08
15.66
-9.78
-38.02
-59.59
-66.65
-57.14
-35.93
-12.88
2.30
4.31
-5.71
-21.08
-34.34
-40.05
-36.80
-25.62
-7.72
15.79
43.88
73.50
99.33
115.39
118.30
109.51
95.03
82.71
77.92
81.22
87.83
90.54
83.54
64.80
37.00
6.66
-18.80
-33.58
-36.04
-29.05
-18.86
-12.25
-13.88
-24.04
-39.18
-53.21
-61.13
-60.65
-53.81
-45.08
-38.75
-37.15
-39.17
-41.57
-41.31
-38.13
-34.30
-33.24
-36.50
-42.26
-46.56
-45.32
-36.94
-22.39
-3.58
18.18
41.80
65.35
85.06
96.57
97.59
90.64
82.23
79.31
83.93
90.94
89.88
71.60
33.62
-16.98
-67.64
-105.86
-124.35
-122.47
-104.59
-77.45
-47.43
-20.24
-0.60
8.19
5.19
-7.78
-26.19
-44.12
-57.15
-62.95
-62.27
-57.28
-50.80
-45.26
-42.22
-42.38
-45.16
-48.97
-51.20
-49.75
-43.59
-33.06
-20.04
-6.55
5.35
14.40
19.78
21.57
20.95
20.32
23.64
34.71
55.48
83.55
111.69
129.89
129.43
107.61
69.70
27.74
-5.76
-23.09
-25.33
-20.03
-16.28
-18.89
-25.54
-29.74
-25.21
-10.97
8.88
28.17
43.13
54.30
63.98
72.88
77.72
73.27
56.64
31.05
5.11
-12.58
-19.11
-19.32
-22.08
-33.82
-52.52
-67.91
-68.15
-47.67
-12.49
22.96
42.97
39.41
16.13
-13.44
-34.12
-36.71
-22.12
0.30
18.91
25.57
18.95
3.07
-16.47
-36.16
-55.27
-74.36
-93.57
-110.94
-124.02
-130.34
-128.53
-118.27
-99.82
-74.21
-44.05
-14.76
7.10
15.98
11.38
-1.11
-12.12
-12.50
1.33
25.72
52.09
71.82
80.04
77.39
67.81
55.63
43.36
31.07
18.94
8.55
4.04
9.90
28.35
57.04
88.43
112.95
121.99
112.36
87.61
56.94
30.73
15.79
12.37
14.40
14.46
8.17
-1.70
-7.40
-1.57
17.26
41.87
60.56
63.43
48.67
23.42
-0.36
-13.07
-11.58
0.46
15.83
29.40
39.05
45.63
50.15
52.11
49.74
41.47
27.69
10.90
-4.79
-16.09
-21.25
-21.42
-19.87
-20.50
-25.67
-34.78
-45.30
-53.43
-57.08
-56.58
-53.70
-50.62
-47.89
-44.83
-40.45
-35.22
-31.09
-30.82
-35.63
-43.72
-52.01
-57.62
-60.37
-62.04
-65.04
-69.71
-74.09
-75.27
-71.28
-62.84
-52.51
-43.17
-35.57
-28.78
-21.51
-14.36
-10.70
-14.28
-26.81
-44.65
-59.58
-62.50
-48.32
-18.90
18.01
52.17
76.10
87.20
88.35
84.55
79.59
74.27
66.91
56.14
42.99
32.15
28.99
37.66
57.98
84.96
110.84
127.45
129.53
115.96
90.05
57.50
24.48
-3.65
-23.48
-33.38
-34.56
-30.80
-27.39
-28.04
-32.65
-37.36
-36.84
-29.47
-19.54
-16.51
-28.86
-58.22
-95.81
-125.76
-133.12
-111.72
-67.70
-15.73
27.82
52.99
58.80
51.51
39.18
26.75
14.91
1.58
-13.79
-27.96
-34.65
-27.86
-5.98
26.78
61.68
90.19
106.87
111.05
105.70
94.01
78.02
57.78
32.98
3.96
-27.42
-58.89
-88.69
-115.14
-136.31
-149.81
-153.14
-144.88
-126.08
-99.61
-69.44
-39.50
-13.42
5.12
13.51
10.81
-0.39
-13.71
-20.53
-13.59
9.24
43.60
79.24
105.04
112.39
98.66
67.22
25.75
-16.08
-49.35
-67.35
-67.46
-51.85
-27.13
-2.12
15.45
22.45
20.95
17.13
17.60
25.49
38.83
52.34
60.38
60.19
53.15
43.47
35.68
32.21
32.29
32.94
31.10
24.88
14.82
2.65
-9.62
-20.79
-30.35
-38.32
-44.31
-47.30
-46.36
-41.86
-35.30
-28.83
-23.94
-19.55
-13.12
-1.98
14.19
32.76
48.87
58.31
59.59
54.58
46.71
37.74
27.32
13.28
-6.31
-30.57
-55.59
-75.89
-86.30
-84.37
-70.64
-48.36
-22.70
0.75
17.58
26.00
27.40
25.04
23.12
24.53
30.98
42.82
59.31
79.07
99.89
118.69
132.11
138.63
138.79
134.52
127.21
115.84
98.24
72.66
41.43
11.14
-10.10
-17.09
-11.83
-2.65
-0.27
-11.76
-36.54
-66.90
-92.00
-103.92
-101.40
-90.04
-78.45
-73.51
-76.81
-84.95
-91.47
-90.66
-80.17
-61.97
-41.23
-23.57
-13.97
-15.09
-27.35
-48.88
-75.28
-100.02
-114.80
-112.02
-87.11
-42.15
14.08
68.24
107.25
123.04
114.55
87.21
49.87
11.08
-22.78
-47.97
-62.89
-67.20
-62.25
-50.78
-37.09
-26.26
-22.22
-25.96
-34.99
-43.49
-44.99
-35.01
-13.42
14.74
41.54
59.51
65.20
61.07
53.29
48.06
48.71
53.85
59.64
61.80
58.47
49.91
37.85
23.98
9.39
-5.06
-18.19
-28.48
-34.63
-36.27
-34.56
-31.51
-29.25
-28.80
-29.26
-27.98
-21.68
-8.29
11.25
31.70
45.40
45.31
28.89
0.41
-30.97
-55.14
-66.16
-64.89
-57.54
-51.51
-50.70
-54.02
-56.87
-54.76
-45.46
-29.93
-10.22
12.16
36.63
61.58
83.78
98.33
101.55
93.82
80.38
68.65
64.34
67.81
74.14
76.34
70.06
55.21
35.63
15.95
-1.73
-18.03
-34.42
-51.08
-64.98
-70.46
-62.87
-41.57
-11.24
19.39
41.03
47.97
40.54
24.31
7.22
-4.56
-9.53
-11.09
-14.44
-22.85
-35.49
-48.56
-57.95
-62.65
-64.89
-67.30
-70.30
-69.84
-59.93
-36.88
-3.61
30.44
53.46
57.38
43.40
20.89
2.69
-2.14
7.70
25.98
44.17
56.82
63.93
69.98
79.44
93.69
109.33
120.68
122.77
113.91
96.05
72.91
48.20
23.90
0.72
-21.54
-42.94
-63.25
-82.70
-101.61
-120.97
-141.00
-160.76
-176.96
-184.69
-179.58
-159.68
-127.62
-88.79
-50.36
-17.96
4.78
16.24
16.64
7.24
-9.00
-28.73
-48.02
-64.66
-77.93
-88.11
-94.69
-94.48
-82.56
-54.22
-8.86
48.46
107.10
155.09
182.54
184.14
160.43
116.75
62.60
9.50
-30.72
-50.05
-46.53
-25.43
2.35
25.56
36.61
34.42
23.23
9.60
-1.49
-9.07
-15.02
-22.20
-31.02
-39.64
-44.88
-44.76
-40.20
-34.76
-32.47
-34.93
-40.09
-42.05
-34.65
-13.45
21.17
63.50
104.35
133.54
143.69
132.00
101.74
59.94
15.67
-22.80
-49.73
-61.86
-58.38
-40.93
-15.17
9.89
23.68
18.09
-7.83
-46.16
-81.41
-97.38
-83.49
-39.41
25.58
96.19
156.79
196.09
208.75
196.01
163.62
120.31
75.25
35.94
7.30
-8.45
-11.12
-2.95
11.82
26.57
33.16
24.86
-0.71
-39.22
-80.68
-112.80
-126.09
-117.08
-88.50
-47.18
-0.84
43.17
78.71
99.98
102.91
86.52
54.93
16.69
-17.86
-39.99
-46.06
-37.79
-21.49
-5.27
3.37
-1.36
-21.90
-56.45
-97.92
-135.69
-158.69
-160.70
-144.08
-119.58
-102.02
-101.90
-119.91
-145.84
-163.14
-157.49
-123.46
-67.06
-1.82
57.21
100.17
124.12
132.50
131.19
125.47
118.31
110.51
102.47
94.57
88.45
85.45
86.86
92.40
99.80
105.09
103.68
92.42
70.97
42.98
13.72
-11.42
-29.37
-39.94
-43.83
-41.57
-32.85
-17.31
3.88
26.63
44.81
53.10
48.77
33.78
12.82
-7.81
-23.46
-31.42
-31.73
-26.64
-19.22
-13.04
-10.20
-11.30
-14.08
-15.01
-10.88
-0.84
12.90
25.50
30.35
22.36
-0.68
-36.21
-77.29
-113.97
-135.97
-135.97
-112.35
-69.95
-18.33
30.60
66.19
82.60
80.38
66.15
49.41
38.93
37.92
43.14
46.27
38.58
16.57
-15.93
-48.61
-70.28
-74.89
-64.83
-48.79
-36.54
-33.24
-36.17
-37.66
-29.45
-8.73
20.32
48.13
64.77
64.78
49.33
25.37
1.54
-15.57
-23.69
-25.20
-24.36
-24.72
-27.38
-30.88
-32.48
-30.48
-24.98
-17.92
-11.71
-7.16
-2.90
3.49
14.06
28.71
44.71
58.94
69.42
76.04
80.76
85.04
89.20
91.49
89.70
82.08
68.15
48.65
24.80
-0.80
-24.30
-41.34
-48.95
-47.79
-42.77
-40.98
-47.89
-63.53
-81.05
-90.51
-83.81
-59.68
-24.66
9.74
32.91
39.45
30.31
10.74
-13.21
-36.67
-56.25
-69.36
-73.52
-67.03
-50.01
-26.14
-2.01
14.41
17.48
6.47
-14.33
-37.65
-56.52
-66.19
-64.89
-52.95
-32.18
-5.45
22.22
43.20
49.30
34.63
-0.22
-47.03
-91.40
-118.68
-119.68
-93.88
-48.77
4.24
54.28
94.01
119.98
133.06
137.06
137.31
138.99
143.88
149.31
148.16
132.74
98.71
48.08
-11.58
-70.37
-119.65
-154.39
-172.24
-172.43
-155.06
-123.18
-84.07
-48.66
-28.04
-27.55
-44.17
-66.16
-78.50
-69.48
-36.42
13.10
64.47
102.37
117.83
110.46
88.21
62.15
41.36
29.72
25.48
23.90
20.62
14.09
5.13
-3.91
-11.41
-16.63
-19.03
-18.04
-12.74
-3.01
9.61
20.97
25.34
17.70
-3.56
-34.35
-66.07
-88.50
-95.18
-86.25
-67.94
-48.40
-33.42
-24.33
-18.44
-13.10
-7.84
-4.80
-5.77
-9.52
-11.53
-6.94
5.98
24.87
44.48
59.93
68.86
71.03
66.95
56.49
39.63
18.11
-3.50
-19.30
-24.53
-18.37
-3.76
14.65
33.75
53.37
74.27
95.59
113.08
120.68
114.73
96.78
74.46
57.83
53.94
62.49
75.53
81.19
69.55
37.78
-9.24
-60.64
-104.37
-131.06
-135.63
-117.49
-79.66
-28.23
28.61
81.43
121.31
141.05
137.11
109.57
62.40
2.84
-59.36
-112.95
-147.51
-155.11
-133.11
-85.27
-21.00
46.26
102.98
138.24
146.50
128.08
89.07
39.47
-9.49
-48.38
-72.67
-82.79
-83.26
-79.94
-77.60
-78.48
-81.61
-84.07
-82.91
-77.14
-68.40
-60.53
-56.97
-58.75
-63.91
-68.94
-71.60
-72.41
-74.53
-79.78
-86.28
-87.85
-77.34
-52.19
-17.07
17.19
40.05
46.42
39.62
28.00
19.42
17.37
19.67
21.74
20.41
16.29
12.75
13.04
17.90
24.95
29.93
28.26
17.05
-4.06
-31.75
-59.73
-81.00
-90.74
-89.01
-80.15
-70.70
-64.99
-62.90
-59.95
-50.54
-31.15
-2.58
30.33
61.80
86.47
101.69
107.10
104.12
96.16
87.29
81.48
80.80
85.03
91.66
97.89
101.98
103.59
103.34
101.77
98.40
91.70
80.18
64.17
46.07
29.91
19.31
15.51
16.84
19.00
17.10
8.22
-7.21
-24.52
-37.11
-39.26
-28.19
-6.18
21.00
45.78
61.11
63.16
51.64
30.28
5.72
-14.88
-26.34
-28.04
-23.82
-20.31
-23.79
-36.36
-54.86
-72.22
-81.36
-78.34
-64.55
-45.92
-28.89
-17.45
-11.17
-6.77
-1.12
6.00
11.65
11.93
4.57
-9.46
-26.51
-42.73
-54.71
-59.78
-55.62
-39.42
-10.25
28.63
69.25
100.44
112.98
104.20
79.78
50.61
26.85
12.73
5.51
-1.93
-16.30
-40.22
-70.71
-101.17
-123.63
-132.16
-125.09
-105.92
-82.77
-65.45
-61.17
-70.92
-88.30
-102.14
-101.56
-82.22
-47.75
-7.68
27.02
49.23
57.16
52.61
38.28
16.29
-12.10
-44.07
-74.05
-94.43
-98.23
-82.53
-50.86
-12.88
19.44
35.73
31.64
10.94
-15.92
-35.45
-36.42
-14.40
26.43
75.18
118.41
145.78
153.33
143.47
122.85
97.67
71.88
47.31
26.07
12.56
12.79
31.45
66.99
110.31
145.96
158.79
140.45
93.61
31.06
-30.01
-75.34
-98.95
-103.02
-95.37
-84.07
-73.73
-65.15
-56.93
-48.19
-40.03
-35.02
-34.60
-37.30
-37.61
-28.22
-3.79
35.25
80.92
120.60
141.38
136.36
108.23
68.71
33.60
15.65
19.45
39.42
63.44
78.73
77.50
59.71
32.10
3.69
-18.07
-29.97
-33.58
-33.11
-33.34
-37.09
-44.95
-55.12
-65.07
-73.13
-79.14
-85.27
-93.67
-105.07
-117.08
-124.88
-124.04
-112.71
-93.41
-71.50
-53.18
-42.43
-40.52
-45.69
-54.00
-60.63
-60.43
-49.35
-26.20
5.23
37.02
59.35
65.71
56.03
36.68
17.37
6.09
6.72
18.57
38.97
64.33
91.01
115.20
132.22
138.23
131.70
114.89
93.39
73.85
60.65
53.68
49.30
42.49
29.90
10.16
-16.12
-47.58
-82.61
-118.23
-149.50
-169.49
-171.16
-151.03
-111.93
-63.32
-18.16
12.93
25.85
24.29
16.49
10.00
8.43
10.45
12.27
11.24
7.49
3.95
3.78
8.37
15.83
21.87
21.91
12.64
-6.11
-31.12
-55.66
-71.87
-73.37
-58.37
-31.40
-1.11
23.14
35.18
34.41
24.93
12.60
1.98
-5.32
-9.46
-11.01
-9.73
-4.94
2.54
9.89
12.86
8.32
-3.19
-18.44
-32.77
-43.19
-49.06
-50.87
-48.72
-40.56
-23.65
3.99
40.46
80.53
116.93
143.65
158.63
163.07
159.91
151.22
137.68
118.17
92.26
60.64
25.67
-8.78
-38.21
-57.67
-63.64
-54.39
-31.62
-0.05
32.88
58.71
71.24
67.33
48.44
18.92
-15.47
-49.11
-77.48
-96.87
-105.10
-101.02
-85.83
-62.58
-36.20
-12.89
1.48
2.48
-11.27
-37.52
-69.42
-97.42
-111.36
-104.38
-75.80
-32.45
12.78
46.00
57.47
46.18
19.33
-11.38
-34.94
-45.29
-42.13
-29.97
-14.60
-1.75
4.86
4.20
-2.01
-9.36
-12.38
-6.50
9.25
31.83
54.85
71.29
76.18
68.26
49.91
25.48
-0.25
-22.93
-38.98
-45.62
-40.29
-21.48
10.38
51.81
95.47
131.69
151.19
149.43
128.49
96.73
64.42
38.98
22.76
13.84
9.71
10.07
16.50
28.74
42.40
49.63
43.31
22.18
-8.40
-39.15
-62.29
-74.76
-78.00
-74.75
-66.84
-54.81
-40.67
-28.90
-23.97
-27.26
-34.30
-37.04
-29.46
-12.44
5.62
14.70
10.59
-0.60
-5.81
6.71
39.29
82.46
120.03
137.73
130.38
102.61
65.04
28.11
-1.51
-21.03
-30.21
-30.45
-25.49
-21.88
-27.63
-48.39
-83.06
-121.85
-149.50
-152.17
-124.66
-74.23
-17.15
27.78
47.34
38.40
7.38
-33.55
-72.34
-100.38
-114.58
-116.03
-107.92
-93.66
-75.76
-55.97
-36.03
-18.74
-7.23
-3.81
-8.41
-17.89
-26.08
-26.55
-15.87
4.87
30.00
52.48
67.26
73.58
74.34
73.62
74.03
74.88
73.83
68.88
60.54
52.09
47.25
48.23
54.32
62.61
68.89
69.46
61.46
42.92
14.03
-21.51
-56.27
-80.91
-87.70
-74.64
-47.08
-15.82
7.97
17.96
13.99
0.36
-18.39
-39.49
-62.02
-84.29
-101.82
-108.55
-98.93
-71.95
-32.91
8.06
39.16
51.43
41.65
13.30
-24.77
-61.19
-86.64
-96.51
-92.34
-80.49
-67.61
-57.25
-47.88
-35.25
-15.39
11.73
41.39
66.94
82.47
86.12
80.37
70.52
61.68
57.34
58.19
62.97
69.84
77.03
83.73
90.20
97.12
104.76
112.81
120.04
124.37
124.25
118.48
107.14
91.49
74.38
59.05
48.36
43.75
43.81
45.05
42.19
30.76
9.22
-20.27
-52.19
-80.50
-100.67
-111.27
-112.87
-107.35
-96.48
-82.62
-69.20
-61.09
-62.56
-74.49
-92.49
-107.82
-111.78
-99.79
-74.17
-43.59
-18.95
-8.91
-16.22
-37.44
-63.91
-84.91
-90.32
-74.50
-38.85
7.96
52.46
81.51
87.67
72.13
43.28
12.20
-12.16
-25.46
-27.25
-19.12
-3.78
14.60
30.09
35.24
23.62
-6.16
-47.96
-89.31
-116.77
-122.33
-107.30
-81.33
-56.77
-42.19
-37.54
-35.66
-27.13
-5.65
28.84
70.30
110.01
140.49
157.09
158.34
144.57
117.57
81.09
42.15
10.71
-2.48
10.13
48.76
105.31
164.53
208.86
224.02
203.40
150.15
75.74
-3.44
-72.07
-120.11
-145.79
-154.38
-154.24
-152.56
-150.96
-145.75
-131.60
-106.59
-74.84
-45.54
-27.70
-24.42
-30.67
-36.01
-31.48
-14.99
7.29
26.22
36.09
38.81
42.70
55.28
77.69
102.29
117.00
112.51
88.01
51.44
14.61
-13.41
-29.98
-37.39
-39.49
-37.93
-31.91
-20.98
-7.42
4.10
8.91
4.57
-7.38
-23.24
-38.97
-52.42
-63.18
-71.35
-76.30
-76.30
-69.88
-56.86
-38.99
-19.68
-3.41
5.24
3.15
-10.38
-32.19
-56.10
-74.31
-80.75
-72.63
-52.19
-25.32
0.61
19.03
27.00
25.81
20.46
16.69
18.13
25.13
34.57
43.02
48.87
54.32
63.86
80.99
104.99
130.11
147.54
149.05
130.86
95.12
49.69
4.66
-30.86
-51.45
-56.62
-49.49
-35.05
-17.44
0.09
15.12
24.45
24.53
13.76
-5.68
-26.76
-40.41
-39.85
-25.16
-4.03
11.81
12.43
-4.52
-33.41
-62.79
-80.92
-80.29
-60.13
-25.61
15.04
52.92
82.19
100.40
108.08
106.75
96.77
77.45
48.40
12.21
-25.33
-55.59
-70.92
-67.32
-46.64
-16.35
13.54
34.27
41.01
34.08
18.04
-0.34
-14.57
-20.37
-17.37
-8.23
2.20
9.68
12.26
10.76
8.02
7.11
9.90
15.26
20.33
21.61
17.30
8.38
-2.67
-13.23
-22.65
-31.91
-43.05
-56.50
-70.55
-81.61
-85.60
-80.57
-67.99
-52.60
-41.12
-39.07
-47.98
-63.55
-76.51
-76.14
-55.99
-17.77
27.55
65.29
84.22
82.15
65.78
45.32
28.14
14.53
0.53
-17.70
-38.93
-57.44
-67.25
-66.39
-59.01
-52.02
-50.76
-55.36
-61.53
-63.25
-56.76
-41.99
-21.05
3.59
30.79
59.54
88.05
112.05
126.40
127.44
115.39
95.21
73.98
57.87
48.43
42.91
36.15
24.40
7.63
-11.46
-29.12
-43.61
-54.39
-61.76
-65.12
-63.10
-55.13
-42.62
-28.51
-14.95
-2.02
13.04
32.61
55.75
76.39
85.34
75.55
46.21
4.62
-37.16
-67.76
-81.97
-82.37
-77.06
-74.66
-78.29
-83.89
-82.19
-64.79
-29.75
15.83
59.50
89.96
102.40
100.88
94.23
90.49
92.68
98.53
103.23
103.51
99.74
94.43
90.20
87.49
84.85
79.55
69.39
54.21
35.76
16.92
0.42
-12.81
-24.67
-38.54
-56.94
-79.61
-102.18
-118.32
-123.31
-117.35
-105.50
-95.26
-91.28
-93.39
-97.66
-99.27
-96.44
-91.00
-85.43
-79.97
-71.63
-55.73
-29.13
6.92
47.28
84.69
113.36
130.34
135.18
129.52
115.64
96.19
74.08
52.38
33.40
18.87
9.72
6.39
9.17
17.70
30.08
41.76
46.60
38.64
15.79
-18.15
-53.64
-78.48
-83.31
-66.33
-34.91
-2.65
16.10
13.66
-7.65
-37.40
-62.88
-76.74
-79.19
-76.21
-73.58
-71.95
-66.39
-50.50
-22.55
11.81
40.60
52.24
41.43
12.18
-24.22
-54.12
-67.44
-60.97
-37.58
-4.80
28.47
54.28
67.14
65.03
49.49
24.83
-3.84
-31.70
-55.70
-74.04
-85.72
-90.00
-86.22
-75.15
-59.05
-41.15
-23.75
-7.55
8.79
26.88
46.06
63.46
74.31
75.63
67.80
54.86
42.49
35.83
37.25
46.44
62.19
82.71
105.96
128.23
143.30
144.20
126.69
92.35
48.82
6.93
-24.50
-42.00
-47.48
-45.99
-41.77
-36.18
-28.29
-16.73
-1.25
16.21
32.93
46.97
56.67
60.88
57.30
43.23
17.41
-18.13
-57.29
-91.21
-111.77
-115.03
-102.48
-80.84
-58.65
-42.93
-36.19
-35.65
-35.05
-28.66
-15.44
0.15
9.90
6.29
-12.12
-39.21
-62.86
-70.72
-55.98
-21.76
20.06
53.72
66.46
54.18
22.46
-16.92
-51.87
-74.75
-83.95
-82.42
-74.74
-64.59
-53.98
-44.14
-35.91
-30.54
-28.76
-30.32
-33.44
-36.07
-37.14
-37.11
-37.90
-40.86
-45.86
-51.12
-53.66
-50.42
-38.94
-18.19
11.56
48.06
87.18
123.06
149.19
160.39
155.80
139.80
120.98
108.78
107.86
115.31
121.66
116.35
94.04
57.50
16.53
-18.40
-41.97
-56.57
-69.18
-85.46
-104.39
-118.10
-117.27
-96.92
-60.64
-19.03
14.71
31.42
29.38
13.76
-6.52
-23.33
-31.72
-30.81
-22.04
-7.70
10.66
32.76
58.49
87.04
115.40
138.78
151.30
148.83
131.37
103.70
73.93
49.42
33.33
22.68
10.83
-8.50
-36.34
-66.75
-89.68
-96.16
-83.49
-55.93
-23.26
4.38
19.84
19.97
5.46
-20.48
-52.59
-83.73
-105.09
-108.57
-89.37
-48.73
5.00
58.51
97.06
110.44
96.70
64.00
27.40
3.78
4.73
31.64
75.87
121.81
153.76
160.95
140.49
95.82
34.88
-32.18
-94.75
-142.34
-167.35
-167.56
-147.94
-118.93
-92.83
-78.40
-77.42
-85.05
-92.70
-93.07
-82.96
-64.64
-44.05
-27.57
-19.56
-20.56
-27.66
-35.50
-38.81
-34.19
-20.73
0.46
27.13
56.35
84.75
107.42
119.17
115.68
96.38
65.82
32.43
4.95
-11.52
-17.45
-18.29
-19.21
-21.55
-22.23
-15.94
-0.85
18.45
32.43
31.97
13.80
-16.06
-45.20
-61.36
-58.95
-41.78
-20.27
-4.44
1.33
-0.87
-5.10
-7.02
-7.03
-8.98
-16.68
-29.90
-43.31
-48.64
-39.36
-13.95
22.70
61.36
93.35
113.09
119.50
114.84
101.55
81.09
54.69
24.69
-3.86
-23.69
-28.87
-17.59
5.27
29.84
46.18
49.55
42.20
30.95
22.37
17.50
11.96
-0.49
-22.08
-47.62
-66.37
-68.57
-52.60
-27.80
-10.85
-15.98
-46.09
-90.06
-128.06
-142.27
-126.27
-87.01
-39.64
1.05
27.47
39.97
42.97
40.51
33.70
23.00
10.14
-1.29
-8.29
-10.72
-11.72
-15.60
-24.18
-35.42
-43.88
-44.28
-34.51
-16.81
2.90
17.93
23.84
21.01
14.41
11.41
17.49
32.40
49.12
56.94
47.63
21.20
-11.81
-34.62
-32.45
-0.30
53.55
111.02
151.63
161.13
135.88
84.08
21.23
-35.78
-74.80
-92.50
-93.62
-87.27
-80.83
-76.19
-69.34
-55.33
-34.06
-12.98
-4.89
-20.15
-59.29
-109.99
-151.86
-165.74
-142.48
-86.86
-13.99
57.31
111.86
140.98
142.96
121.07
81.92
34.30
-11.77
-46.08
-61.19
-53.73
-26.04
15.10
59.85
97.25
118.28
117.89
97.66
65.37
33.28
12.62
8.96
19.80
36.08
47.58
47.43
35.44
16.34
-3.02
-17.26
-24.58
-26.21
-24.85
-21.91
-17.51
-9.86
3.06
22.27
46.41
71.15
90.28
97.54
89.51
67.12
36.73
7.72
-10.72
-13.47
-2.61
13.79
23.99
18.72
-4.41
-38.83
-71.86
-91.31
-91.10
-74.34
-50.52
-30.65
-21.51
-24.08
-34.28
-46.13
-55.15
-58.94
-57.51
-51.51
-41.63
-28.07
-11.79
4.37
15.65
16.27
2.23
-25.39
-58.24
-83.26
-86.96
-62.06
-12.41
48.47
102.01
133.13
135.53
113.14
76.47
37.79
6.75
-11.80
-17.56
-14.03
-6.29
0.33
2.05
-2.25
-11.56
-23.84
-37.18
-49.73
-60.10
-66.45
-67.82
-65.27
-61.87
-61.41
-65.63
-71.85
-72.66
-59.56
-27.97
18.71
68.92
107.91
124.88
118.49
96.29
70.41
50.22
38.85
33.68
29.95
24.94
18.45
11.48
3.18
-9.50
-28.92
-53.10
-74.09
-81.13
-66.06
-29.11
20.24
66.82
96.95
103.82
89.51
63.15
36.05
17.04
9.52
10.86
14.05
11.11
-4.13
-32.92
-70.96
-110.45
-142.28
-158.98
-156.26
-133.34
-92.66
-39.82
16.23
65.11
97.53
109.26
103.53
89.35
77.22
73.38
77.26
82.96
83.89
76.60
62.06
42.96
21.11
-2.93
-27.89
-49.25
-60.21
-55.58
-37.49
-16.51
-7.83
-22.57
-59.74
-105.62
-140.37
-148.99
-129.24
-91.97
-53.96
-28.95
-22.01
-29.52
-44.50
-61.29
-77.40
-91.69
-101.55
-101.62
-85.44
-49.53
3.85
66.29
127.29
177.95
214.21
236.52
247.00
246.98
235.35
210.27
170.79
119.17
61.17
4.67
-42.22
-74.16
-89.58
-91.48
-86.42
-82.08
-84.21
-94.37
-109.11
-121.46
-124.85
-117.02
-101.98
-87.38
-79.90
-80.18
-81.58
-74.02
-50.04
-10.81
33.63
68.06
79.43
63.12
24.90
-21.47
-60.98
-83.40
-86.49
-74.24
-52.80
-25.96
6.50
46.12
92.37
139.36
176.19
190.55
174.58
128.75
63.52
-3.98
-56.21
-81.32
-77.89
-54.19
-24.25
-1.02
9.06
7.64
2.29
0.79
6.31
15.04
18.87
10.30
-12.65
-43.77
-71.13
-81.88
-68.40
-31.39
19.67
70.86
109.53
128.94
130.50
121.28
109.98
101.93
97.64
92.69
80.62
55.96
16.24
-36.41
-95.36
-150.16
-189.81
-206.27
-197.96
-169.95
-131.24
-90.42
-52.28
-18.29
11.04
32.91
42.03
34.16
10.67
-18.86
-39.83
-39.34
-13.32
31.14
79.86
118.36
138.47
139.85
127.64
108.28
87.07
67.46
52.53
45.48
49.38
64.97
88.76
113.28
128.83
127.34
105.46
66.18
17.69
-30.00
-68.63
-94.48
-108.06
-111.97
-108.69
-99.64
-86.06
-70.43
-57.13
-50.30
-51.10
-56.13
-58.98
-54.66
-43.18
-30.29
-23.28
-26.36
-37.51
-50.37
-58.32
-58.75
-53.27
-45.45
-37.98
-30.18
-19.19
-1.88
22.52
51.91
81.61
106.14
121.04
123.45
113.15
92.46
65.65
37.05
9.19
-17.39
-43.23
-66.53
-82.27
-83.49
-66.27
-33.52
4.45
34.07
46.22
40.46
25.15
11.17
4.76
3.36
-1.28
-16.39
-42.38
-70.92
-90.20
-91.47
-74.42
-46.16
-16.76
6.66
22.59
34.04
45.02
56.28
64.73
64.71
52.38
29.12
1.78
-19.10
-24.46
-11.03
15.72
44.36
62.70
64.30
51.89
34.74
23.17
21.94
28.19
33.04
27.42
7.26
-24.62
-58.96
-84.67
-93.12
-82.05
-56.55
-26.94
-4.27
3.74
-4.50
-24.43
-48.37
-68.44
-79.18
-77.35
-60.76
-27.88
20.64
79.32
137.19
179.19
192.68
172.97
126.73
69.55
18.68
-14.37
-28.75
-32.79
-38.85
-56.05
-85.57
-120.36
-148.32
-158.56
-146.17
-114.89
-75.64
-42.60
-27.70
-35.88
-63.31
-98.81
-128.58
-141.05
-131.38
-102.40
-62.47
-20.28
18.79
53.94
87.66
121.38
153.13
176.49
183.86
170.77
138.95
96.76
56.03
27.94
18.65
27.97
49.56
73.42
89.35
89.99
73.89
46.10
16.92
-2.48
-5.98
3.97
16.64
18.29
-0.82
-39.73
-86.76
-124.28
-137.48
-121.25
-82.54
-37.11
-2.19
10.11
-2.37
-33.07
-69.97
-100.97
-117.42
-115.87
-97.61
-66.37
-27.37
14.75
56.20
94.35
127.85
155.40
175.30
184.71
180.84
162.44
130.83
90.43
47.54
8.91
-20.28
-36.81
-40.31
-32.69
-18.61
-4.73
1.41
-5.60
-26.53
-57.80
-92.22
-123.11
-146.05
-159.70
-164.04
-158.51
-141.90
-113.58
-76.44
-36.31
-0.47
26.19
43.31
54.35
63.82
73.52
81.92
85.60
82.40
72.86
59.44
44.70
30.03
16.86
7.32
4.60
10.91
25.69
43.98
58.65
64.82
61.87
53.80
45.71
40.50
37.04
32.22
23.36
10.28
-5.19
-21.41
-37.79
-54.87
-71.63
-85.19
-91.29
-86.76
-72.21
-51.50
-30.63
-15.34
-9.35
-13.73
-26.97
-45.50
-63.45
-74.29
-72.92
-58.69
-36.43
-15.01
-2.93
-3.00
-10.22
-14.26
-5.84
17.56
48.90
75.91
87.88
81.79
62.99
40.86
22.27
7.40
-7.72
-26.21
-44.90
-54.09
-43.73
-10.58
36.61
79.90
100.49
89.58
53.17
9.58
-19.97
-22.98
-1.03
31.78
57.15
62.09
44.73
13.33
-19.78
-44.91
-59.18
-64.37
-62.93
-53.82
-32.40
5.24
57.22
113.02
156.65
172.51
153.31
103.47
37.97
-23.38
-64.30
-77.11
-64.88
-37.32
-6.40
19.14
34.99
40.62
37.81
27.84
12.13
-7.68
-28.71
-47.41
-60.63
-67.53
-69.62
-69.31
-68.65
-67.35
-64.42
-59.31
-53.35
-49.20
-48.52
-51.02
-53.83
-53.70
-47.62
-34.95
-17.23
2.63
20.85
34.65
42.23
43.76
40.62
34.74
27.45
19.24
10.58
2.78
-1.03
2.31
14.02
30.81
45.53
49.16
35.72
5.43
-35.57
-77.70
-112.00
-132.50
-137.10
-126.18
-101.53
-65.33
-20.17
29.23
76.31
112.64
130.09
123.63
93.74
47.76
-2.20
-42.91
-64.53
-64.12
-46.14
-19.29
7.83
30.39
49.21
68.04
89.72
112.92
132.06
139.83
132.00
110.87
84.70
63.57
53.72
54.85
60.86
65.13
64.48
60.36
56.42
53.07
45.87
27.67
-5.48
-50.23
-95.74
-128.95
-142.16
-136.82
-122.01
-108.07
-100.47
-97.10
-91.53
-79.36
-62.24
-48.03
-45.65
-58.64
-81.82
-102.83
-108.49
-91.27
-52.96
-3.56
42.68
72.83
79.03
60.58
23.32
-22.07
-62.09
-84.27
-80.51
-50.95
-4.29
44.09
78.09
86.97
69.32
33.84
-5.26
-34.49
-47.26
-45.34
-36.85
-30.26
-29.57
-33.62
-38.11
-40.23
-41.34
-45.87
-57.70
-76.17
-94.92
-104.00
-95.38
-67.06
-24.82
21.06
59.48
82.45
86.87
74.35
50.67
23.83
2.53
-7.39
-4.44
8.27
24.92
40.50
52.58
61.88
70.04
77.95
84.12
86.36
84.40
80.86
81.16
89.69
106.98
128.75
148.22
159.19
158.21
145.25
121.72
89.77
51.84
12.66
-21.09
-41.93
-44.66
-29.36
-1.98
27.07
46.92
49.17
30.17
-8.79
-62.46
-121.85
-175.85
-212.40
-221.60
-198.37
-145.85
-75.31
-3.40
53.06
83.58
86.24
67.60
38.05
7.09
-20.44
-44.76
-68.28
-92.73
-116.91
-137.16
-148.48
-146.89
-129.76
-96.18
-47.11
14.24
80.97
143.18
189.14
208.81
197.60
158.48
102.02
43.01
-4.36
-31.74
-38.72
-32.50
-22.90
-17.04
-15.90
-14.32
-6.15
10.62
30.09
40.95
32.33
0.94
-45.22
-89.82
-115.52
-112.61
-82.83
-38.37
5.08
35.85
50.91
55.28
56.78
61.20
68.56
74.24
72.13
58.69
34.57
4.27
-26.32
-52.92
-73.84
-90.29
-103.86
-115.20
-122.87
-123.70
-114.37
-92.19
-56.94
-10.14
44.53
101.64
154.46
195.71
219.25
221.40
203.48
171.47
134.55
100.63
73.06
49.06
21.77
-14.83
-61.47
-111.99
-155.49
-181.26
-183.78
-164.47
-130.82
-92.15
-56.13
-27.27
-6.60
6.26
12.18
12.05
7.21
-0.15
-7.36
-11.46
-10.52
-4.09
5.57
13.69
14.35
2.16
-24.47
-61.49
-98.83
-124.22
-127.25
-103.94
-58.02
0.27
58.16
104.53
132.66
141.20
133.02
113.90
90.41
68.12
50.55
38.13
29.45
22.37
15.26
7.60
0.14
-6.58
-12.84
-19.13
-25.96
-32.20
-35.80
-34.26
-25.70
-10.28
9.90
30.78
47.73
56.19
53.47
39.43
17.37
-6.99
-28.13
-42.75
-51.98
-58.96
-66.51
-73.66
-75.15
-65.05
-40.35
-4.98
31.79
59.53
72.28
71.27
63.49
56.98
55.48
57.22
57.12
51.14
39.31
25.72
15.51
11.22
11.74
12.46
8.59
-2.41
-18.94
-35.85
-46.74
-47.20
-37.03
-19.86
-2.18
10.24
13.27
5.55
-11.74
-35.92
-62.07
-83.83
-93.37
-84.32
-54.08
-6.81
46.08
89.98
112.14
107.04
78.59
37.37
-4.45
-38.15
-61.31
-77.48
-92.02
-109.05
-128.05
-144.28
-150.85
-143.05
-120.66
-88.68
-54.97
-26.30
-6.64
4.22
8.32
7.82
3.92
-3.26
-13.11
-24.59
-36.11
-47.51
-59.91
-74.98
-92.98
-110.53
-121.80
-120.48
-103.15
-70.26
-25.84
24.99
77.21
125.83
165.89
192.43
202.51
196.69
180.75
163.27
152.35
151.33
157.25
163.44
163.40
155.83
144.52
136.08
134.83
139.49
143.13
136.00
110.68
65.48
5.59
-59.43
-119.74
-168.62
-204.49
-229.35
-246.25
-255.67
-254.53
-237.13
-199.17
-142.01
-74.12
-8.99
40.84
68.16
73.83
64.52
48.67
32.98
20.32
11.11
4.91
2.54
5.72
15.84
32.17
51.46
69.25
81.07
84.78
81.43
74.84
69.81
69.70
74.30
79.39
79.55
71.66
57.90
45.07
40.76
48.78
66.15
84.38
92.87
84.32
57.80
19.61
-19.60
-49.72
-64.45
-64.06
-54.30
-43.75
-40.44
-48.17
-65.57
-86.57
-104.01
-112.30
-111.01
-104.17
-97.93
-97.17
-102.88
-111.75
-118.27
-117.80
-108.37
-91.94
-73.10
-57.00
-46.77
-42.40
-41.54
-40.69
-37.13
-29.46
-18.65
-7.29
1.88
7.28
9.76
11.52
14.57
19.31
24.47
29.29
35.05
45.29
63.23
88.92
116.92
138.05
142.99
127.32
94.45
55.47
24.88
14.07
26.69
57.05
93.27
122.26
134.85
128.21
104.78
69.42
26.65
-19.43
-64.46
-102.68
-127.80
-135.15
-124.00
-98.49
-66.15
-35.83
-15.30
-10.17
-22.71
-51.03
-87.69
-120.71
-136.86
-126.43
-88.32
-30.53
32.20
85.04
118.14
128.73
119.92
97.85
69.81
43.09
24.74
20.50
33.30
60.93
95.85
126.68
141.09
130.73
93.81
36.92
-27.20
-83.39
-119.30
-130.18
-119.32
-96.52
-73.09
-57.45
-51.85
-53.14
-55.93
-56.31
-54.55
-53.80
-57.66
-66.23
-75.28
-78.15
-70.36
-52.53
-30.73
-13.88
-9.10
-18.59
-38.36
-61.07
-78.59
-84.83
-76.85
-54.66
-21.23
17.72
53.14
74.69
74.74
52.23
14.82
-23.59
-48.38
-50.19
-28.05
10.73
54.20
90.30
110.15
110.44
93.89
67.70
41.13
22.28
15.30
19.56
30.44
41.76
48.74
49.62
45.80
39.91
34.65
31.11
28.89
25.90
19.78
9.32
-4.34
-16.93
-23.14
-18.80
-4.17
16.23
35.35
47.62
51.17
47.87
41.35
34.41
28.13
21.90
15.31
9.30
6.00
6.92
11.21
15.97
16.69
9.15
-8.87
-36.61
-69.87
-102.61
-128.25
-142.23
-143.09
-132.62
-114.12
-91.05
-65.68
-38.28
-8.86
22.04
51.80
76.80
93.51
100.63
99.31
92.76
84.57
76.69
69.22
60.20
46.71
27.07
2.89
-20.98
-38.45
-44.65
-39.05
-25.59
-10.29
1.13
6.00
5.28
2.64
1.77
4.46
9.63
14.02
13.61
5.71
-9.48
-28.55
-45.17
-52.29
-44.66
-21.54
12.23
47.00
71.42
76.28
57.48
18.49
-30.29
-74.42
-100.87
-102.51
-81.10
-46.09
-9.56
19.12
36.50
44.85
48.84
52.06
55.78
59.74
63.36
66.54
69.61
71.74
69.91
59.90
38.33
5.06
-35.22
-73.71
-100.51
-108.14
-95.02
-66.82
-34.78
-11.08
-3.93
-13.93
-34.31
-53.87
-62.10
-53.15
-27.05
10.97
53.07
90.88
116.81
125.54
114.94
87.09
48.65
9.55
-20.35
-35.15
-34.67
-24.44
-13.07
-7.77
-11.47
-22.36
-35.51
-45.92
-51.44
-53.45
-55.52
-60.24
-67.29
-71.95
-67.16
-47.14
-11.57
32.34
72.79
98.34
104.10
94.05
78.62
68.72
69.63
79.51
91.02
96.88
93.87
84.00
71.95
60.74
50.21
37.71
21.19
1.56
-16.88
-29.40
-33.32
-29.72
-22.50
-16.45
-15.27
-20.09
-31.05
-47.25
-67.27
-88.27
-105.47
-113.76
-109.88
-95.27
-76.04
-60.53
-54.92
-60.34
-72.62
-84.70
-91.25
-90.79
-86.33
-82.96
-83.94
-88.36
-90.68
-83.72
-63.14
-31.56
1.23
21.35
18.11
-9.83
-52.18
-91.13
-110.27
-101.48
-68.83
-25.05
14.96
40.39
47.80
40.29
24.49
7.63
-2.82
-0.90
17.37
51.68
96.39
140.99
173.58
185.35
173.68
143.06
102.41
61.62
28.68
8.19
0.90
4.09
12.65
20.17
21.51
14.67
3.02
-5.39
-1.77
18.85
53.13
90.12
115.98
121.55
107.40
83.96
65.67
62.47
74.74
92.55
101.49
90.75
59.45
17.12
-21.62
-44.34
-47.11
-34.80
-17.50
-4.67
-1.23
-6.48
-16.46
-27.71
-39.28
-52.59
-68.48
-84.77
-95.81
-95.46
-81.69
-58.64
-35.35
-20.53
-18.21
-25.53
-35.42
-40.79
-38.61
-31.61
-25.44
-24.89
-30.37
-37.60
-40.38
-34.20
-19.48
-1.65
10.59
9.26
-9.67
-43.71
-84.28
-118.99
-135.46
-126.00
-90.19
-35.60
25.25
78.29
111.95
120.06
103.58
70.20
31.83
1.23
-12.27
-4.79
20.65
55.57
88.91
109.47
109.68
87.48
47.71
0.77
-40.45
-65.46
-69.79
-57.05
-37.41
-23.35
-24.05
-41.08
-67.97
-93.08
-105.52
-100.14
-78.97
-50.01
-22.44
-2.84
7.11
9.41
7.45
4.02
-0.01
-4.69
-10.18
-14.85
-15.90
-10.57
2.37
21.04
40.66
54.81
58.15
48.23
26.66
-1.64
-29.63
-50.61
-59.43
-53.47
-32.51
1.22
42.68
84.62
118.11
135.07
131.85
110.46
78.17
44.20
16.52
-0.77
-8.31
-9.48
-8.23
-6.07
-2.48
4.69
16.50
31.51
45.77
53.92
52.05
39.24
18.76
-3.70
-22.65
-36.24
-47.27
-61.93
-86.14
-120.51
-158.97
-190.11
-202.76
-190.68
-155.71
-106.74
-54.93
-9.20
27.48
57.05
83.70
110.54
137.73
162.38
179.55
184.56
173.83
146.83
106.55
60.03
16.60
-15.51
-32.53
-36.75
-34.37
-31.54
-30.44
-28.93
-22.68
-9.02
10.63
31.89
49.30
59.75
62.61
59.50
52.36
42.35
30.34
17.63
7.06
1.84
4.12
12.96
25.02
36.41
44.43
49.20
52.40
55.28
56.48
52.13
37.38
9.87
-27.95
-69.43
-106.63
-134.57
-153.41
-167.05
-178.67
-186.85
-184.94
-164.66
-121.74
-59.57
10.18
71.73
111.50
123.87
113.16
90.63
68.45
53.35
44.13
34.00
16.53
-8.63
-35.19
-53.18
-55.45
-42.91
-24.35
-11.52
-12.39
-26.43
-44.71
-55.23
-48.99
-24.72
10.70
44.99
65.75
65.71
45.58
13.55
-18.36
-38.74
-41.57
-27.80
-4.48
18.05
29.91
24.96
2.98
-30.32
-65.19
-91.34
-101.69
-95.12
-77.08
-56.49
-41.41
-35.60
-37.82
-43.19
-46.46
-43.55
-32.12
-11.83
15.66
46.03
72.65
87.94
86.47
67.85
37.92
7.67
-11.58
-12.61
4.21
31.45
58.89
78.41
86.78
86.06
81.04
75.79
72.09
69.30
66.15
61.92
57.07
52.14
46.59
38.64
26.20
9.61
-7.93
-21.04
-25.44
-20.87
-11.42
-3.22
-0.25
-1.71
-2.69
1.31
10.08
17.46
14.72
-2.40
-28.75
-50.48
-52.45
-27.21
19.50
71.68
110.71
123.89
109.17
72.90
25.71
-22.52
-63.94
-92.80
-105.02
-99.41
-79.13
-51.22
-24.87
-6.82
0.93
0.93
-2.97
-8.99
-18.20
-32.57
-51.10
-68.50
-76.19
-67.63
-42.88
-10.26
16.98
28.36
21.62
4.57
-10.15
-12.24
0.09
19.56
34.75
36.49
23.41
0.90
-22.32
-39.20
-46.68
-45.70
-38.75
-28.26
-17.04
-7.76
-3.23
-4.41
-9.55
-14.72
-16.06
-12.62
-7.17
-5.21
-10.93
-24.92
-43.13
-59.31
-68.15
-67.25
-57.67
-41.35
-20.14
4.63
30.50
52.79
65.46
63.96
49.36
29.25
15.30
16.67
34.58
60.46
80.99
85.77
72.74
49.03
24.48
5.10
-10.48
-27.87
-50.81
-76.74
-97.14
-103.53
-92.63
-69.03
-41.64
-18.95
-5.21
-0.06
-1.44
-7.00
-14.70
-21.63
-23.49
-17.06
-2.62
14.70
27.53
30.26
23.47
13.33
7.88
11.87
23.95
38.06
47.44
49.41
46.14
42.73
42.64
45.48
48.04
46.96
41.53
33.36
25.21
17.76
9.90
0.07
-11.32
-21.08
-25.43
-22.72
-15.85
-11.10
-14.54
-28.00
-47.48
-65.44
-74.52
-71.81
-59.09
-41.65
-24.83
-11.62
-1.46
8.86
22.57
40.86
61.68
80.49
92.25
94.24
87.64
77.34
70.00
69.92
77.38
87.77
94.45
91.85
78.71
58.16
35.48
15.44
-0.87
-15.22
-31.01
-50.13
-70.83
-87.84
-94.71
-87.67
-67.66
-40.48
-14.08
4.13
9.84
2.41
-15.84
-40.58
-65.92
-85.17
-92.96
-86.39
-66.69
-39.02
-10.55
11.60
22.74
21.53
10.85
-3.88
-16.64
-22.99
-22.75
-19.54
-19.18
-25.10
-35.22
-42.21
-37.02
-14.64
21.56
60.73
89.89
100.43
92.40
72.65
50.57
32.89
21.34
14.15
8.88
4.67
2.37
3.80
10.12
21.79
38.06
56.64
73.43
82.74
80.20
65.04
41.30
16.45
-2.56
-13.48
-19.50
-25.89
-35.64
-46.48
-52.33
-47.69
-32.91
-14.85
-2.67
-2.42
-12.09
-23.92
-29.87
-27.48
-22.02
-22.84
-36.90
-63.73
-95.71
-121.91
-134.86
-133.61
-122.86
-108.79
-94.69
-79.92
-61.59
-38.83
-14.91
3.14
9.21
2.47
-11.14
-21.06
-17.93
1.01
29.78
57.21
72.21
69.65
53.10
32.35
18.75
19.36
34.46
57.47
78.62
89.34
85.59
68.89
44.80
20.33
0.63
-12.46
-20.20
-24.85
-27.48
-27.32
-22.52
-13.11
-1.87
6.01
6.67
0.63
-6.92
-8.60
0.58
19.73
41.44
55.83
55.36
39.64
16.18
-2.45
-4.44
15.01
51.23
91.62
121.61
130.88
117.73
88.73
54.99
26.97
10.22
4.73
6.25
9.74
11.75
11.11
8.13
3.35
-2.78
-10.65
-20.41
-32.01
-44.46
-55.80
-63.76
-66.71
-64.97
-60.12
-55.14
-52.24
-52.46
-55.75
-61.18
-67.30
-72.50
-75.25
-74.00
-68.45
-59.13
-47.67
-36.24
-26.13
-17.37
-8.48
2.66
17.30
34.42
51.60
65.96
75.19
79.45
79.85
78.13
74.31
66.87
53.22
32.21
6.21
-19.74
-38.94
-47.03
-43.79
-33.55
-22.62
-16.32
-16.59
-21.14
-25.74
-25.46
-17.38
-0.18
24.95
54.88
85.58
112.28
130.75
137.51
130.82
110.14
76.90
34.75
-10.80
-52.75
-85.34
-105.22
-113.13
-111.43
-102.27
-85.67
-59.72
-24.42
15.96
51.85
72.61
71.26
49.37
16.22
-15.71
-36.37
-42.97
-38.85
-30.55
-22.97
-18.01
-14.96
-12.42
-10.12
-8.14
-6.50
-3.16
4.75
19.29
39.12
59.34
73.67
77.77
72.66
63.94
59.34
63.63
75.09
85.71
84.14
61.76
16.56
-44.45
-107.88
-158.14
-182.77
-175.97
-140.12
-85.02
-24.72
25.99
56.41
61.76
44.28
11.83
-25.47
-57.86
-79.73
-90.08
-92.39
-91.76
-92.45
-95.55
-99.11
-100.68
-99.08
-95.92
-93.04
-90.30
-83.49
-66.34
-34.91
8.13
52.19
83.57
91.55
74.27
39.41
0.20
-30.86
-46.29
-43.95
-25.42
6.76
48.05
91.33
126.46
142.48
132.75
98.31
49.02
-0.03
-33.61
-42.28
-24.68
12.71
57.80
97.47
120.77
123.48
108.75
86.36
67.37
58.81
59.84
62.57
57.63
39.71
11.40
-18.72
-40.51
-47.73
-41.29
-27.76
-15.75
-11.17
-15.40
-25.18
-35.65
-43.37
-48.28
-52.90
-59.50
-67.04
-70.38
-63.00
-41.57
-10.37
19.20
33.68
24.58
-5.77
-45.71
-79.53
-95.23
-89.38
-66.70
-36.52
-7.31
15.41
29.96
36.43
35.87
29.75
19.95
8.76
-2.23
-12.02
-20.51
-26.79
-28.30
-21.12
-2.77
25.34
56.27
79.82
87.26
76.13
52.71
29.50
19.22
28.54
54.07
85.17
109.10
117.29
109.22
90.80
70.08
52.66
39.77
29.08
17.32
3.22
-11.64
-23.83
-30.00
-28.71
-21.69
-12.51
-5.67
-4.84
-11.52
-24.82
-41.38
-56.30
-64.84
-64.07
-54.18
-38.83
-23.51
-13.08
-9.59
-11.69
-16.15
-20.46
-24.46
-30.10
-39.28
-51.00
-61.06
-63.70
-55.31
-36.83
-13.69
7.66
22.98
31.54
34.72
33.30
25.79
9.99
-13.87
-41.14
-63.69
-74.51
-71.11
-57.01
-39.21
-23.81
-12.93
-5.41
0.55
3.77
0.36
-13.01
-35.55
-60.69
-79.03
-82.48
-69.00
-43.19
-13.85
10.11
23.91
27.56
24.98
21.61
22.26
28.68
39.36
50.05
55.46
51.65
38.05
18.83
1.22
-7.05
-0.98
19.87
51.65
87.53
120.86
147.08
164.43
172.75
171.93
161.90
142.84
117.19
89.05
64.07
46.54
38.21
36.90
37.46
34.42
23.89
5.28
-18.97
-44.26
-66.71
-83.67
-94.17
-98.61
-97.81
-93.37
-86.60
-78.61
-70.06
-61.70
-54.51
-50.38
-51.70
-60.66
-77.53
-99.12
-119.58
-131.84
-130.75
-115.96
-91.40
-64.21
-40.61
-24.35
-14.91
-9.56
-5.03
1.14
9.73
20.21
31.04
41.05
48.79
54.09
57.83
61.63
67.10
73.57
77.67
73.84
57.30
26.76
-13.05
-52.01
-77.86
-81.46
-61.54
-25.11
14.72
45.52
60.62
61.05
53.69
46.61
44.98
49.23
57.29
66.55
75.98
85.39
93.77
97.82
92.85
76.15
49.20
18.66
-7.59
-24.38
-31.64
-33.70
-35.53
-39.83
-45.69
-50.78
-53.91
-56.09
-59.56
-65.62
-72.66
-76.35
-72.33
-58.35
-36.58
-12.78
6.12
16.03
17.27
14.41
14.08
21.21
36.36
54.30
66.31
64.51
46.81
19.20
-7.30
-22.50
-23.31
-15.75
-11.13
-18.73
-39.17
-63.40
-77.64
-71.80
-46.07
-12.36
12.24
14.63
-7.10
-43.16
-78.25
-99.30
-101.49
-88.12
-66.75
-43.64
-21.52
-0.97
16.58
27.34
26.11
10.24
-17.32
-47.34
-67.96
-70.04
-51.64
-18.88
17.45
47.28
65.20
71.78
71.29
68.25
65.15
62.22
59.44
57.08
56.24
57.64
59.47
57.85
48.26
28.74
2.06
-24.48
-41.91
-43.67
-28.09
1.01
35.89
68.26
91.13
100.88
96.92
81.63
59.78
36.95
17.73
4.69
-2.84
-7.70
-14.31
-26.04
-44.18
-67.38
-91.38
-110.60
-118.75
-111.14
-86.04
-45.77
3.02
50.80
87.94
107.97
109.12
94.44
69.21
38.54
5.59
-27.68
-59.30
-85.50
-101.54
-103.69
-91.05
-67.27
-38.88
-12.25
9.06
25.73
40.47
55.69
70.21
79.71
78.54
63.81
38.75
12.32
-3.49
0.51
26.01
64.73
101.99
122.87
119.71
95.52
60.81
27.70
2.92
-13.51
-26.52
-40.08
-54.93
-68.70
-78.91
-86.09
-92.59
-100.02
-106.29
-105.67
-92.34
-65.16
-30.32
0.95
17.55
14.74
-3.87
-28.12
-47.26
-55.52
-54.52
-51.25
-52.12
-58.15
-63.94
-61.95
-48.25
-26.75
-7.70
-2.42
-16.19
-44.59
-75.95
-96.62
-97.41
-76.89
-40.42
3.53
46.59
82.53
107.56
120.24
121.71
115.24
105.42
96.75
91.55
88.96
85.39
76.64
59.49
33.56
1.11
-34.42
-69.22
-99.57
-121.79
-131.61
-125.07
-100.44
-60.16
-11.58
35.28
71.21
91.48
96.48
91.00
80.94
70.82
63.18
58.83
57.80
59.51
62.61
65.11
64.22
56.50
39.00
10.34
-27.64
-68.91
-103.03
-118.27
-105.79
-65.04
-6.58
50.68
86.69
89.07
59.57
13.84
-25.40
-38.75
-18.50
28.23
83.15
125.48
140.41
124.25
84.09
32.93
-16.76
-57.06
-85.17
-100.48
-101.77
-86.46
-53.66
-8.06
38.42
69.75
73.59
47.67
1.88
-47.00
-84.15
-103.75
-109.65
-109.96
-109.41
-105.62
-92.64
-67.05
-33.59
-4.00
9.01
-0.20
-26.89
-58.95
-83.19
-92.15
-85.52
-67.30
-41.83
-11.33
23.10
59.50
93.29
118.14
128.08
120.40
96.38
60.99
21.76
-13.47
-38.29
-49.54
-48.02
-38.12
-26.08
-18.24
-17.88
-23.64
-30.11
-29.63
-16.59
9.74
43.57
75.09
94.07
94.18
75.68
44.05
7.26
-27.66
-56.14
-75.81
-85.11
-81.97
-64.90
-34.96
2.02
36.64
58.28
59.58
39.15
2.27
-40.42
-77.10
-98.18
-99.38
-81.91
-52.04
-17.57
15.16
42.62
64.65
81.34
91.65
92.37
80.52
56.11
24.55
-4.19
-19.67
-15.38
7.36
41.05
75.41
101.60
114.82
114.37
102.08
80.59
53.78
25.90
2.40
-12.54
-18.49
-18.72
-18.80
-22.60
-29.81
-35.44
-33.79
-22.24
-3.76
14.28
24.39
22.16
9.00
-9.73
-27.77
-41.71
-51.75
-60.54
-70.15
-79.42
-85.21
-84.15
-75.54
-61.66
-46.90
-35.00
-27.10
-21.59
-14.97
-4.41
11.62
32.34
55.35
77.06
92.87
97.54
86.91
60.45
22.90
-15.77
-44.49
-55.78
-49.84
-34.65
-21.50
-20.04
-32.97
-55.62
-78.39
-91.89
-91.23
-77.28
-55.37
-31.27
-8.65
13.55
39.28
72.50
113.70
157.48
193.68
210.99
202.44
168.60
118.33
64.64
18.86
-14.18
-36.56
-53.71
-69.84
-84.56
-94.40
-95.40
-86.51
-70.34
-50.92
-32.19
-16.73
-6.02
-1.13
-2.50
-8.17
-13.58
-13.05
-2.62
15.97
35.86
47.97
46.56
32.72
13.32
-3.63
-13.96
-18.14
-20.02
-22.49
-25.61
-26.94
-23.96
-16.23
-5.87
3.57
10.10
13.29
14.27
14.10
12.49
8.70
2.33
-6.02
-14.56
-21.13
-24.95
-26.53
-27.95
-31.66
-39.15
-49.39
-58.10
-59.25
-47.63
-22.94
9.31
39.32
57.18
58.26
44.75
24.73
7.27
-2.07
-4.47
-6.11
-15.00
-36.64
-70.54
-110.60
-146.29
-167.05
-166.22
-143.75
-106.23
-64.18
-27.41
-1.02
15.25
25.23
31.62
34.80
33.45
28.20
23.93
28.21
47.64
82.42
125.53
164.69
187.80
188.21
166.97
131.90
94.20
64.94
51.42
56.12
75.12
98.85
115.36
114.59
93.16
55.55
12.18
-25.96
-52.04
-65.46
-69.49
-67.90
-63.19
-55.87
-47.30
-40.27
-38.33
-42.68
-50.49
-55.52
-50.96
-34.61
-10.08
14.47
30.67
34.03
25.57
10.27
-6.44
-20.57
-30.78
-36.64
-37.92
-34.13
-25.38
-12.33
4.07
22.75
43.04
63.24
80.63
91.03
91.07
79.82
59.44
34.73
10.37
-10.61
-28.26
-43.57
-57.35
-69.30
-78.27
-83.70
-85.75
-85.31
-82.93
-78.99
-73.06
-64.83
-55.03
-45.17
-37.73
-34.47
-36.30
-41.53
-46.74
-47.55
-41.29
-29.24
-16.58
-10.28
-14.33
-27.15
-41.40
-48.94
-46.27
-37.69
-33.31
-41.92
-65.35
-95.19
-116.60
-114.81
-82.90
-25.07
45.57
112.74
164.00
194.05
205.66
205.75
201.05
194.41
183.82
165.58
137.79
103.78
70.83
47.34
37.88
40.95
49.30
53.26
45.32
22.78
-11.29
-50.37
-86.83
-114.66
-130.62
-133.39
-123.73
-104.17
-79.92
-58.12
-46.33
-49.11
-65.22
-87.44
-105.21
-110.51
-101.51
-83.81
-66.04
-54.35
-48.35
-41.99
-28.34
-4.39
26.17
55.77
76.97
86.30
84.40
73.96
57.70
37.57
17.01
1.22
-3.62
5.91
27.24
51.86
68.83
70.16
54.63
28.54
1.99
-16.18
-22.26
-18.38
-9.35
0.63
10.63
21.68
34.32
45.21
48.06
36.37
8.19
-31.12
-71.03
-100.32
-113.56
-113.40
-108.81
-108.53
-115.00
-122.74
-121.52
-104.14
-70.98
-30.11
8.21
37.37
58.15
77.20
101.62
134.16
170.52
201.78
217.94
212.71
186.44
146.38
104.25
71.83
57.50
62.56
81.81
105.62
123.93
129.88
120.92
98.37
64.67
22.30
-26.94
-79.77
-130.68
-171.66
-193.76
-190.47
-159.95
-106.71
-40.33
26.94
83.80
122.45
140.24
139.24
123.79
98.45
66.20
28.99
-11.55
-52.74
-91.61
-126.19
-155.44
-179.56
-197.60
-206.49
-201.64
-180.53
-145.75
-106.38
-75.52
-63.39
-72.37
-94.20
-114.19
-118.14
-99.57
-61.67
-14.15
32.88
73.61
106.71
133.10
152.27
161.79
158.94
143.93
120.86
95.33
71.45
49.19
25.87
-0.84
-29.91
-55.65
-71.03
-71.32
-56.69
-31.02
0.20
32.94
64.94
93.85
115.89
125.45
117.41
90.20
49.01
4.59
-30.31
-46.42
-42.49
-25.55
-8.26
-2.58
-14.52
-40.71
-70.23
-89.27
-87.51
-63.37
-24.22
17.09
48.12
62.11
59.13
44.41
23.99
1.83
-21.47
-45.99
-70.56
-91.01
-102.20
-100.56
-86.52
-64.42
-39.75
-17.17
1.27
15.27
25.19
31.20
33.82
35.07
37.74
44.47
54.83
64.47
66.44
55.28
30.98
0.23
-26.31
-39.73
-38.02
-26.47
-14.80
-11.37
-18.40
-31.47
-42.67
-45.14
-36.92
-20.69
-2.44
11.78
18.19
15.51
4.81
-11.10
-27.73
-40.32
-44.68
-39.14
-25.54
-8.09
8.35
20.07
25.36
24.39
18.77
10.59
1.88
-4.85
-6.93
-2.74
7.24
19.71
29.72
32.78
27.99
18.70
11.23
10.70
18.21
30.10
40.20
43.19
37.57
26.68
16.40
11.78
15.06
24.35
35.10
42.18
41.32
30.57
11.36
-11.09
-28.92
-33.93
-21.66
5.57
38.19
62.65
67.20
47.08
7.01
-41.66
-86.10
-117.62
-133.76
-136.54
-128.59
-111.31
-85.09
-51.35
-14.25
20.63
48.00
65.77
74.94
77.69
75.22
66.64
50.88
28.51
3.52
-19.01
-35.70
-47.15
-57.01
-67.93
-78.85
-84.21
-77.69
-56.67
-24.93
8.77
35.68
51.84
59.68
64.51
70.43
76.59
78.88
73.37
59.89
42.87
28.05
18.94
13.91
8.50
-1.39
-15.98
-31.38
-42.50
-45.56
-40.14
-27.42
-8.47
16.78
47.32
78.88
103.09
110.28
95.44
62.21
23.12
-5.96
-14.09
-1.51
19.90
33.39
25.99
-3.25
-42.99
-74.73
-82.88
-62.75
-22.93
19.57
47.82
52.26
34.33
3.02
-30.56
-58.63
-78.85
-92.48
-101.28
-105.55
-104.61
-98.93
-92.04
-88.67
-92.03
-100.38
-106.29
-99.93
-74.26
-29.80
24.72
75.93
112.14
128.88
130.08
124.51
119.19
115.62
109.77
96.90
76.82
55.77
42.16
39.51
42.50
37.79
12.80
-35.62
-96.79
-150.23
-175.85
-164.64
-122.75
-67.44
-18.65
10.63
17.41
7.01
-11.88
-31.70
-47.47
-56.12
-55.13
-42.64
-18.60
13.46
47.41
76.69
96.19
103.76
99.08
82.84
56.00
21.31
-15.76
-46.85
-62.65
-57.33
-31.31
7.86
48.48
79.88
97.32
102.89
103.12
104.74
109.74
114.63
112.06
95.10
60.89
12.80
-41.24
-91.81
-131.34
-155.72
-163.40
-154.79
-130.78
-93.49
-47.36
0.14
39.24
61.45
62.42
44.74
16.69
-11.17
-30.50
-39.14
-41.10
-43.53
-51.15
-63.48
-74.14
-75.17
-62.19
-37.34
-8.77
13.87
24.08
21.59
10.30
-4.66
-20.23
-35.51
-49.92
-60.82
-63.28
-53.81
-32.92
-7.26
13.87
23.46
20.53
11.14
4.42
7.87
23.07
45.52
68.06
85.04
95.43
101.84
108.26
115.86
122.56
124.13
117.73
104.28
88.12
74.78
67.47
65.81
65.52
61.27
49.67
31.36
10.10
-9.51
-24.78
-36.96
-49.93
-68.09
-92.81
-120.47
-142.93
-149.98
-134.80
-97.48
-46.70
4.20
43.04
63.86
68.32
62.16
50.61
34.57
11.63
-20.57
-59.49
-95.96
-117.40
-113.78
-83.91
-36.06
14.98
55.39
77.57
82.06
74.55
61.20
44.88
24.49
-2.61
-37.57
-77.42
-115.78
-145.19
-159.72
-156.82
-136.95
-103.08
-59.65
-12.83
30.06
61.52
76.99
77.25
68.15
58.37
54.08
55.22
55.07
44.69
18.91
-19.31
-59.44
-89.14
-100.40
-93.58
-75.92
-56.26
-39.56
-25.14
-8.92
12.81
40.26
70.69
100.19
125.67
144.84
155.26
153.38
136.19
104.09
63.14
24.77
1.01
-1.46
14.42
36.92
51.67
49.90
34.06
15.64
8.37
18.63
41.39
62.81
68.15
49.89
11.51
-35.84
-79.94
-113.08
-133.57
-143.43
-145.07
-139.73
-127.73
-109.79
-87.51
-63.33
-39.77
-19.50
-4.75
3.67
7.96
13.10
25.07
46.81
75.32
102.44
118.45
117.30
100.67
76.08
52.74
36.44
27.38
22.16
17.11
10.43
2.15
-7.24
-17.72
-28.78
-37.82
-40.25
-31.74
-11.54
15.79
41.54
56.73
56.21
41.31
19.23
-0.76
-11.79
-12.53
-8.04
-6.26
-14.64
-36.18
-67.31
-99.00
-120.68
-124.65
-109.93
-83.04
-54.60
-34.33
-25.64
-24.43
-22.42
-12.67
5.86
27.38
42.92
45.76
36.07
20.54
8.58
6.75
14.70
26.03
32.40
28.44
14.42
-4.06
-19.37
-25.72
-21.04
-6.93
13.20
35.63
57.25
76.01
90.18
98.28
99.29
93.05
80.62
63.38
42.63
19.60
-4.81
-28.84
-49.49
-63.29
-67.10
-60.22
-45.24
-27.61
-13.74
-8.01
-11.76
-22.63
-36.01
-47.02
-52.34
-50.78
-43.38
-32.65
-21.62
-13.03
-8.17
-6.87
-7.91
-9.79
-11.86
-14.37
-18.07
-23.41
-29.88
-36.71
-43.67
-50.66
-57.56
-62.40
-60.64
-46.53
-15.30
33.41
93.29
151.90
194.50
209.31
191.84
147.08
87.78
29.92
-12.11
-29.73
-21.95
5.84
43.69
80.41
105.91
113.30
101.08
72.56
34.97
-3.37
-35.50
-57.96
-70.22
-74.09
-72.43
-67.92
-63.05
-59.20
-56.45
-53.69
-49.37
-42.86
-35.66
-31.19
-31.84
-37.34
-43.81
-46.27
-42.17
-33.90
-27.97
-31.06
-45.83
-68.59
-91.07
-103.91
-100.81
-81.18
-49.27
-12.77
19.95
41.66
48.15
38.25
15.16
-13.83
-39.11
-51.66
-46.74
-25.56
4.87
34.74
54.98
61.21
54.03
37.36
16.60
-3.84
-20.40
-29.82
-28.40
-13.39
14.92
51.79
88.18
114.78
125.67
120.58
103.94
81.93
58.71
35.18
10.60
-15.32
-39.37
-56.50
-62.36
-56.65
-43.77
-30.79
-23.20
-22.00
-23.97
-24.01
-20.32
-15.42
-14.66
-21.82
-35.07
-47.10
-48.85
-35.30
-8.81
20.67
40.96
43.87
29.00
3.65
-21.06
-35.33
-34.86
-20.32
3.45
30.80
56.65
76.71
87.78
87.36
75.12
52.94
25.71
-0.29
-18.93
-27.21
-26.76
-22.73
-22.49
-31.52
-51.47
-78.65
-105.47
-123.30
-126.09
-112.33
-84.63
-48.91
-11.67
20.43
41.79
48.02
37.74
15.03
-10.99
-28.06
-26.80
-5.05
29.82
64.73
86.58
88.23
71.02
42.02
10.14
-17.89
-37.72
-47.32
-44.93
-28.97
0.36
39.81
82.35
118.92
141.08
144.90
132.17
109.60
85.47
65.33
50.12
36.27
20.47
3.07
-11.03
-15.18
-6.27
12.12
30.21
37.80
29.48
7.59
-20.76
-48.48
-72.10
-91.74
-107.69
-117.77
-116.88
-101.06
-71.59
-36.71
-9.34
-1.38
-17.90
-54.25
-97.88
-133.29
-148.42
-139.06
-109.95
-71.98
-36.68
-11.18
4.75
17.58
36.17
65.56
103.98
142.90
170.80
179.41
166.79
138.27
102.50
67.54
37.13
10.51
-14.57
-39.27
-61.21
-75.55
-77.79
-66.91
-46.53
-24.33
-8.54
-4.31
-12.05
-27.23
-42.65
-51.95
-52.24
-44.70
-33.80
-24.26
-18.41
-15.60
-12.42
-5.55
7.15
24.90
45.02
64.55
81.11
93.98
102.26
104.98
100.58
87.94
67.88
42.98
17.03
-6.87
-26.70
-42.26
-53.85
-62.78
-70.34
-77.63
-85.85
-95.04
-103.66
-108.46
-105.43
-91.05
-64.56
-28.80
10.66
47.01
74.66
89.94
92.08
82.28
63.22
38.31
11.57
-12.05
-27.31
-29.41
-17.06
5.62
29.57
44.12
42.09
23.30
-5.71
-35.79
-59.14
-72.62
-76.43
-71.46
-57.57
-33.37
1.00
41.79
81.79
113.21
130.23
130.38
114.32
84.00
43.54
-0.38
-37.44
-56.34
-49.77
-19.11
24.61
65.05
87.73
87.09
67.50
40.01
16.35
3.23
0.85
4.79
9.00
7.75
-2.60
-23.42
-53.68
-89.19
-123.67
-149.99
-163.48
-163.31
-152.93
-136.88
-118.59
-98.89
-77.07
-53.48
-30.40
-12.28
-2.21
-0.27
-2.54
-3.08
2.59
15.11
31.06
45.40
53.88
55.13
50.74
43.93
38.51
38.55
47.90
68.68
99.51
134.01
161.25
169.49
151.59
109.89
56.54
8.61
-20.35
-26.60
-17.74
-6.58
-3.89
-11.65
-22.78
-26.86
-16.84
5.47
30.30
45.47
43.26
23.91
-5.24
-34.83
-58.57
-74.70
-84.16
-87.56
-83.44
-69.04
-44.07
-13.03
15.29
31.13
29.30
11.80
-13.18
-36.46
-52.07
-59.97
-63.85
-67.15
-70.17
-68.87
-57.87
-33.95
0.35
37.20
66.49
80.20
75.90
57.25
32.32
9.55
-5.13
-10.25
-8.29
-3.39
1.06
3.54
3.06
-1.69
-13.14
-32.76
-58.37
-83.15
-97.43
-93.57
-70.26
-34.32
2.57
29.33
40.17
36.64
25.54
15.12
11.96
19.83
38.65
65.06
92.39
111.94
116.20
101.78
71.67
34.15
0.00
-21.57
-25.23
-9.96
21.32
62.91
106.29
140.90
155.69
142.80
100.80
36.36
-36.86
-102.10
-144.77
-157.72
-143.01
-110.57
-74.03
-45.25
-30.12
-27.78
-33.85
-44.17
-58.10
-77.42
-102.99
-130.82
-151.73
-154.53
-132.10
-86.63
-29.52
22.29
54.30
60.66
45.99
22.37
2.42
-6.66
-6.22
-3.08
-3.85
-10.19
-17.69
-19.68
-12.43
1.18
13.02
14.49
2.61
-18.25
-38.52
-48.31
-42.68
-22.73
5.46
34.79
59.06
75.19
82.26
81.43
75.47
68.00
63.59
65.91
77.31
97.95
126.03
157.72
187.19
207.50
210.61
190.73
147.28
87.49
25.43
-22.71
-45.75
-42.20
-20.65
4.12
19.58
20.35
9.96
-2.79
-10.26
-9.94
-5.50
-2.79
-6.58
-17.29
-31.82
-45.40
-53.80
-54.25
-45.22
-26.73
-0.38
29.38
55.81
70.89
68.11
46.11
9.72
-30.72
-63.96
-82.10
-84.58
-77.93
-73.01
-78.89
-98.39
-126.54
-152.37
-164.33
-155.27
-125.43
-82.06
-35.51
5.12
35.24
55.02
67.22
73.48
72.75
61.50
37.00
0.29
-42.20
-80.39
-105.22
-112.29
-103.79
-86.31
-66.69
-48.09
-29.21
-7.01
20.15
49.98
76.25
90.83
87.43
63.79
23.27
-26.41
-75.62
-114.78
-136.74
-137.95
-118.73
-83.00
-37.65
8.66
47.70
72.99
82.10
77.95
68.43
63.21
69.66
89.16
115.41
137.14
142.72
125.49
86.94
36.73
-9.97
-38.55
-39.75
-13.58
30.45
76.52
107.99
112.90
88.08
39.38
-21.57
-80.74
-126.00
-148.92
-145.24
-115.67
-66.40
-9.47
39.53
65.88
62.07
31.85
-10.21
-45.28
-59.48
-50.33
-27.02
-3.70
8.82
8.73
1.33
-7.11
-14.87
-25.67
-44.10
-68.95
-90.77
-95.64
-73.39
-25.49
33.94
84.83
110.81
107.59
83.76
54.80
34.57
29.16
36.44
50.18
65.35
79.89
93.70
104.87
108.22
97.38
69.52
29.33
-12.03
-41.93
-52.88
-45.72
-27.93
-8.71
6.20
16.11
23.02
27.94
29.20
23.13
7.86
-14.79
-39.36
-59.06
-69.57
-71.04
-67.73
-65.50
-68.95
-78.73
-90.92
-98.60
-94.98
-77.15
-47.14
-11.22
23.61
52.00
71.25
80.92
80.70
69.72
47.82
16.87
-18.19
-50.58
-74.10
-86.01
-87.74
-84.37
-81.34
-81.58
-83.33
-81.31
-69.65
-45.55
-11.78
23.21
48.03
53.66
37.06
3.16
-37.03
-70.56
-87.75
-85.87
-69.05
-46.11
-25.53
-11.81
-3.47
5.29
20.46
44.04
72.40
98.09
113.59
115.31
104.17
84.19
59.88
34.22
8.27
-18.26
-45.52
-72.80
-97.91
-116.85
-123.44
-111.35
-77.73
-26.59
29.84
74.91
95.04
87.79
64.19
43.84
44.89
73.60
120.76
165.71
186.57
170.53
119.17
46.92
-26.52
-84.61
-119.71
-132.61
-128.85
-113.72
-90.12
-59.33
-23.69
12.00
42.16
63.15
75.62
83.68
92.01
102.10
110.63
111.28
98.58
71.82
35.77
-0.78
-29.14
-44.51
-47.06
-41.27
-33.01
-26.71
-23.86
-23.26
-23.12
-22.90
-24.03
-28.47
-37.31
-49.12
-60.99
-70.02
-74.65
-74.94
-71.49
-65.56
-58.50
-52.52
-49.56
-49.55
-48.98
-40.85
-18.67
19.10
65.48
107.76
132.89
134.93
118.29
94.71
76.49
69.97
73.68
80.44
82.90
77.58
66.30
54.15
45.94
43.85
46.25
49.24
47.91
38.60
20.13
-5.20
-31.43
-50.71
-56.15
-45.77
-24.09
-1.37
10.38
3.38
-21.81
-55.80
-85.67
-101.01
-99.61
-87.63
-75.09
-68.95
-68.45
-65.97
-52.13
-23.39
15.20
51.55
73.98
77.55
66.52
50.47
37.37
28.69
18.42
-1.09
-33.15
-72.28
-105.84
-120.42
-109.42
-77.47
-38.44
-8.74
1.05
-8.94
-28.79
-44.99
-48.19
-37.52
-19.41
-1.73
11.38
21.46
32.54
47.07
63.34
76.14
80.80
75.11
60.21
38.19
10.39
-22.84
-59.97
-96.09
-124.02
-136.62
-130.81
-108.30
-73.67
-31.24
16.08
65.49
112.22
148.65
166.40
160.15
131.31
88.57
45.34
14.11
1.03
3.76
12.79
17.12
9.49
-10.20
-35.13
-55.02
-60.06
-45.01
-10.34
37.88
89.96
134.36
159.94
158.74
128.19
74.28
10.44
-46.36
-82.97
-95.67
-90.86
-81.22
-77.69
-84.72
-98.99
-113.33
-121.45
-120.81
-112.34
-97.96
-78.94
-55.41
-28.28
0.17
25.98
46.14
60.12
70.14
79.66
90.19
100.50
106.78
105.18
93.69
73.85
50.76
31.16
21.71
25.47
40.33
58.44
68.60
60.52
29.59
-20.09
-77.13
-127.18
-158.80
-167.34
-155.60
-131.04
-102.26
-76.19
-56.88
-46.02
-42.04
-41.26
-37.35
-23.89
2.81
41.31
83.85
119.51
138.59
137.55
119.86
94.08
68.59
47.26
28.82
8.50
-16.95
-46.79
-75.83
-97.53
-107.50
-105.64
-95.56
-81.47
-66.38
-51.14
-36.96
-25.90
-21.18
-24.79
-35.37
-48.24
-56.83
-56.92
-47.75
-32.29
-14.26
4.24
23.18
42.96
61.93
76.29
80.84
72.42
51.07
20.03
-15.43
-50.24
-79.59
-99.51
-106.55
-98.91
-76.70
-42.09
1.28
49.59
98.78
145.11
183.64
209.15
216.54
204.20
175.34
137.69
101.11
73.28
58.17
55.34
62.31
75.79
92.57
108.67
118.13
113.85
90.12
46.62
-10.36
-69.00
-116.57
-145.20
-155.07
-154.34
-153.69
-161.04
-176.95
-195.72
-209.10
-211.81
-204.31
-191.40
-178.80
-168.71
-159.71
-147.85
-130.71
-108.95
-86.12
-66.55
-52.54
-43.34
-35.11
-23.53
-5.40
19.93
50.00
79.58
102.00
112.49
110.30
100.31
90.55
87.93
94.21
104.51
110.43
104.43
84.75
55.35
24.00
-2.74
-21.06
-29.72
-28.63
-17.17
4.10
32.11
60.18
80.54
87.55
80.72
64.47
44.74
25.66
7.04
-13.49
-37.65
-62.58
-80.27
-81.07
-58.93
-16.56
34.76
78.90
102.56
101.19
79.91
49.75
21.11
-0.91
-17.57
-32.15
-46.49
-58.43
-63.67
-59.45
-46.77
-29.91
-12.89
3.00
19.83
40.24
64.89
91.43
115.60
134.32
146.31
152.15
151.33
141.54
119.59
84.73
41.30
-1.56
-32.54
-43.69
-34.27
-11.25
14.23
31.31
33.58
20.71
-2.77
-29.65
-53.09
-68.20
-73.86
-72.21
-67.74
-65.53
-68.09
-74.56
-81.21
-84.14
-81.30
-73.53
-63.16
-51.65
-39.56
-26.57
-13.50
-2.84
2.07
-0.04
-6.76
-12.87
-12.84
-3.85
12.89
32.40
49.35
60.17
64.08
62.12
55.59
45.79
33.64
21.21
10.91
5.00
4.39
7.62
11.59
12.58
7.84
-4.33
-23.83
-50.08
-81.29
-113.72
-141.83
-158.24
-156.50
-133.76
-93.27
-43.87
3.46
39.22
58.73
62.47
55.55
44.69
35.81
32.34
34.75
41.17
48.30
53.61
55.78
55.60
54.41
53.44
53.00
52.57
51.48
48.88
44.72
38.73
30.76
19.76
4.75
-14.21
-36.00
-57.49
-75.22
-85.92
-88.39
-83.70
-74.07
-62.21
-49.20
-35.57
-21.53
-8.80
-0.76
-0.78
-9.79
-24.50
-38.63
-45.12
-40.22
-23.79
1.49
32.18
65.14
96.96
123.14
137.55
135.37
115.92
85.29
54.12
32.58
25.28
28.56
33.88
32.59
21.73
4.15
-13.35
-23.89
-23.93
-13.25
5.19
27.00
46.48
58.46
59.14
48.43
30.38
11.06
-4.11
-14.20
-22.84
-35.45
-54.95
-79.60
-104.19
-123.97
-138.37
-150.02
-162.52
-175.53
-183.03
-175.62
-145.72
-93.05
-26.62
38.11
86.08
108.89
108.19
93.33
75.69
62.96
55.76
49.91
40.16
25.00
7.88
-4.65
-6.52
4.42
26.02
52.78
78.68
98.49
108.46
106.60
93.50
73.08
52.08
38.89
39.35
53.99
77.30
100.08
114.04
115.65
106.83
92.12
74.81
55.08
30.98
1.24
-32.30
-64.74
-91.29
-109.41
-120.16
-126.37
-129.72
-129.50
-123.59
-111.93
-97.80
-87.86
-87.47
-97.21
-111.57
-121.13
-117.68
-98.28
-66.88
-31.20
0.94
25.18
41.17
50.79
56.09
58.02
57.11
53.93
49.59
45.08
41.01
38.04
38.11
45.49
64.37
96.14
135.94
173.57
196.72
197.30
175.72
140.18
102.75
72.11
49.99
31.09
7.75
-24.91
-64.78
-102.97
-128.26
-132.30
-114.71
-83.95
-53.95
-38.30
-44.16
-69.75
-106.30
-142.86
-170.72
-186.11
-188.49
-178.49
-156.54
-123.24
-81.93
-39.73
-6.06
12.02
13.27
3.39
-8.45
-15.08
-14.74
-10.49
-6.86
-6.45
-8.15
-8.96
-6.14
1.29
12.52
26.42
41.99
58.04
73.16
85.46
93.63
97.47
97.80
95.39
90.10
80.40
64.79
42.92
16.27
-12.52
-40.63
-65.26
-83.35
-90.43
-82.15
-56.65
-17.37
26.49
63.02
83.45
86.51
78.84
71.40
72.65
83.19
95.65
98.97
85.50
55.75
17.90
-16.91
-40.05
-48.41
-43.58
-28.84
-7.06
19.90
49.10
75.64
92.64
93.46
74.88
38.92
-6.86
-52.08
-86.33
-102.66
-99.04
-78.17
-45.88
-8.54
28.95
63.78
93.54
115.51
125.22
117.77
90.61
45.77
-9.00
-62.59
-103.77
-126.15
-129.36
-118.41
-100.25
-80.26
-60.87
-42.32
-25.88
-14.60
-13.26
-24.98
-48.37
-76.89
-100.94
-112.42
-107.76
-89.14
-62.14
-32.62
-4.78
18.91
36.32
45.01
42.06
26.01
-2.78
-41.10
-83.58
-124.05
-155.98
-173.92
-173.59
-153.33
-114.52
-62.18
-4.67
48.24
88.14
111.36
119.51
118.26
113.47
108.32
102.86
95.59
86.49
77.37
71.31
69.60
70.33
68.91
60.92
45.37
25.09
5.53
-8.55
-14.59
-12.77
-4.53
8.45
24.14
40.20
53.50
61.73
64.56
64.22
63.64
63.88
62.71
54.64
34.51
0.88
-41.70
-83.44
-112.54
-119.65
-101.40
-60.87
-6.89
49.58
97.81
130.55
145.09
143.03
128.82
107.14
81.41
51.94
17.32
-23.32
-67.65
-109.26
-139.54
-151.17
-141.89
-115.03
-77.93
-37.76
0.88
36.38
68.10
93.38
107.53
105.46
85.51
51.08
11.34
-22.95
-43.95
-50.06
-46.25
-39.74
-36.10
-35.58
-34.00
-25.73
-9.01
12.06
28.54
30.76
13.91
-19.28
-59.16
-93.74
-113.87
-117.05
-107.84
-93.37
-79.53
-67.07
-53.04
-33.72
-8.76
17.08
35.80
40.66
30.26
9.44
-11.99
-24.44
-22.80
-8.78
10.01
23.95
24.73
8.57
-23.14
-63.98
-104.74
-134.90
-145.20
-130.21
-90.19
-31.75
32.78
88.02
120.48
123.75
100.62
62.73
25.24
0.97
-4.94
4.10
18.60
27.74
24.09
6.30
-20.51
-47.13
-62.60
-58.30
-30.84
16.03
72.12
124.21
160.71
175.82
170.68
151.82
127.34
103.75
85.38
74.29
70.26
71.23
72.69
68.35
52.73
24.32
-13.26
-51.71
-82.14
-99.12
-103.26
-99.82
-95.10
-92.27
-89.09
-79.94
-59.54
-27.73
8.94
38.77
49.66
34.76
-3.89
-55.17
-103.09
-132.58
-134.49
-107.79
-58.86
1.18
60.35
108.89
141.28
156.96
159.52
153.84
143.68
129.88
110.01
80.71
40.59
-7.38
-56.11
-95.72
-117.52
-116.92
-95.15
-59.27
-20.29
9.73
21.19
9.49
-23.80
-72.02
-125.41
-174.12
-210.50
-230.67
-234.39
-223.49
-200.66
-168.27
-128.15
-82.53
-34.97
9.55
45.87
69.95
80.43
79.19
70.50
59.36
50.19
46.71
51.29
65.50
88.75
116.88
142.26
155.64
150.36
125.05
85.10
40.16
0.68
-25.76
-35.92
-30.40
-12.39
13.96
43.24
69.74
87.70
92.56
82.81
60.76
31.85
2.79
-20.30
-33.51
-36.32
-31.42
-23.17
-15.64
-10.93
-7.78
-3.71
3.11
11.82
19.42
22.97
21.97
19.61
20.11
26.08
35.42
41.45
36.51
16.22
-17.19
-55.63
-87.88
-105.42
-105.30
-91.11
-70.73
-52.16
-40.61
-36.80
-38.44
-42.60
-47.71
-54.04
-62.63
-73.15
-83.16
-88.42
-83.86
-66.09
-34.58
6.65
50.20
86.73
108.44
111.92
98.84
75.39
49.01
26.30
11.28
5.26
7.21
13.86
21.18
25.08
23.35
16.67
8.17
1.50
-1.60
-2.26
-3.15
-5.99
-10.99
-16.67
-22.17
-27.73
-33.93
-39.52
-40.39
-31.45
-9.40
23.59
60.56
92.83
114.21
123.41
122.98
116.63
105.80
90.00
68.87
44.45
21.45
4.33
-5.61
-11.69
-19.27
-31.40
-45.20
-53.24
-48.77
-31.65
-10.75
0.98
-5.63
-28.29
-53.42
-63.39
-46.87
-6.17
43.74
82.44
94.65
75.66
31.62
-25.04
-81.14
-125.74
-151.48
-153.99
-132.80
-92.28
-42.26
4.00
33.49
38.63
20.80
-10.38
-41.12
-60.31
-63.66
-55.44
-45.12
-41.57
-48.23
-61.07
-71.46
-70.80
-55.53
-28.15
4.92
37.11
64.67
85.91
100.08
105.28
99.66
82.64
56.93
28.45
3.99
-11.23
-15.65
-11.46
-3.75
2.37
2.88
-3.73
-15.92
-29.76
-39.14
-37.96
-21.36
11.80
58.60
111.65
160.21
193.12
201.76
183.66
144.07
94.68
48.88
16.36
-0.40
-6.56
-10.50
-19.30
-34.58
-52.83
-68.40
-77.61
-81.96
-87.54
-101.27
-125.64
-155.62
-178.92
-181.82
-156.84
-107.80
-49.07
0.76
28.11
30.95
18.52
5.89
5.06
18.50
39.49
56.94
62.04
52.11
30.85
4.67
-20.69
-41.89
-57.61
-65.92
-64.00
-49.01
-20.99
14.96
49.37
72.21
77.85
68.31
52.69
41.82
42.50
53.82
68.21
76.30
73.13
60.37
44.28
31.17
22.80
16.05
6.13
-9.44
-27.75
-41.44
-42.42
-27.21
0.90
32.72
57.84
69.83
68.03
57.01
41.83
25.11
5.86
-17.99
-46.14
-74.04
-94.22
-101.22
-95.53
-84.88
-80.00
-87.99
-107.24
-127.11
-133.72
-117.54
-79.63
-31.34
11.12
35.40
38.69
27.77
14.60
9.01
14.93
29.22
45.58
58.76
66.98
71.46
73.68
73.43
67.79
53.61
30.19
1.27
-25.21
-40.08
-36.09
-10.98
31.24
80.74
124.61
150.41
149.87
122.77
77.17
28.06
-8.04
-19.36
-4.56
26.87
58.27
73.16
63.01
30.22
-13.25
-52.26
-75.42
-78.59
-64.24
-38.56
-8.13
21.85
46.67
61.50
61.34
43.04
8.01
-36.69
-79.06
-105.91
-107.71
-82.61
-37.36
14.88
59.11
84.24
85.93
67.84
38.14
5.43
-25.42
-53.57
-80.15
-104.75
-123.38
-130.33
-122.07
-101.19
-77.11
-62.11
-64.69
-84.03
-109.82
-126.26
-120.39
-88.69
-39.35
11.73
48.51
61.88
53.46
33.79
16.61
11.62
20.10
34.67
44.55
42.59
29.66
15.25
11.40
25.94
56.72
92.86
120.42
129.32
118.14
93.41
65.76
44.20
33.65
34.23
43.64
59.13
77.18
93.64
102.79
98.99
78.71
43.02
-1.88
-46.51
-81.54
-101.57
-106.95
-103.57
-99.16
-99.87
-107.14
-117.94
-126.66
-127.69
-117.90
-96.70
-66.44
-32.00
-0.28
20.95
25.21
10.70
-17.19
-47.02
-64.08
-57.58
-25.25
24.59
76.51
114.71
129.68
121.71
98.49
70.55
45.84
26.95
12.10
-1.44
-13.97
-22.30
-21.36
-8.44
14.17
37.95
51.45
45.31
17.59
-24.48
-66.96
-94.88
-99.18
-79.74
-45.24
-8.27
20.99
37.59
42.52
39.44
31.92
21.31
7.82
-8.70
-27.46
-46.32
-62.53
-72.63
-72.86
-60.75
-36.97
-6.66
21.47
38.72
41.55
33.54
24.56
25.55
42.35
71.71
102.51
120.99
117.50
92.27
54.74
19.00
-3.57
-10.38
-7.51
-5.44
-11.41
-24.68
-36.50
-35.80
-16.51
17.77
54.78
80.36
86.00
72.93
50.16
27.73
10.57
-3.01
-17.66
-35.72
-53.75
-64.69
-62.60
-48.30
-30.08
-19.18
-23.04
-40.32
-61.90
-76.40
-77.63
-67.96
-55.79
-49.40
-51.46
-58.31
-62.52
-58.22
-44.61
-26.23
-10.52
-3.95
-9.43
-25.15
-45.56
-63.00
-70.96
-66.67
-52.58
-35.65
-23.69
-22.08
-31.11
-46.73
-62.18
-71.38
-70.63
-58.37
-35.11
-2.91
33.80
68.47
93.70
104.16
99.19
84.19
69.31
64.63
76.04
102.61
137.44
170.59
192.86
198.62
186.23
157.43
115.63
65.96
14.86
-30.26
-62.58
-78.70
-79.89
-71.71
-60.29
-49.55
-39.30
-26.92
-11.25
5.65
18.68
22.95
16.60
2.27
-15.15
-30.90
-42.27
-48.46
-48.56
-41.32
-25.79
-3.59
21.08
41.87
53.25
52.85
41.82
24.50
5.72
-9.86
-19.17
-20.64
-14.88
-4.59
6.46
14.21
16.86
14.93
11.08
7.93
5.87
2.76
-4.89
-19.24
-39.42
-60.13
-74.18
-74.91
-59.78
-31.84
1.57
31.76
52.50
61.30
59.63
50.55
36.78
19.32
-2.52
-28.78
-57.68
-83.68
-98.61
-94.36
-67.16
-21.09
31.65
74.84
95.74
91.13
69.44
45.91
34.18
39.32
55.65
72.07
79.31
75.77
66.45
57.83
51.93
44.95
31.26
8.74
-18.04
-40.87
-53.84
-57.70
-59.03
-65.04
-78.30
-94.29
-104.95
-104.48
-94.22
-82.18
-78.14
-87.46
-108.13
-132.21
-149.87
-153.98
-141.82
-114.60
-75.71
-29.90
16.36
55.73
81.39
89.88
82.28
64.27
43.14
24.63
10.72
-0.18
-10.22
-19.35
-23.95
-19.27
-2.74
23.07
50.06
68.72
72.79
62.66
43.94
24.37
9.15
-1.29
-9.81
-19.96
-31.95
-41.96
-44.01
-33.73
-11.35
17.98
46.44
67.88
80.63
87.76
94.48
104.99
119.16
132.03
136.01
124.63
97.11
59.38
23.07
0.48
-0.41
20.49
54.21
86.59
103.55
96.89
66.81
22.06
-24.48
-61.24
-81.80
-86.58
-80.18
-68.23
-54.39
-39.72
-24.13
-8.70
3.51
9.45
8.49
3.41
-1.37
-2.45
-0.59
0.08
-4.79
-16.38
-30.70
-42.04
-46.74
-46.66
-47.79
-55.72
-71.81
-91.93
-108.69
-115.36
-109.25
-91.14
-64.73
-34.84
-7.59
10.55
14.39
2.44
-20.71
-46.36
-64.80
-70.58
-64.86
-53.75
-44.30
-40.65
-43.12
-49.51
-58.12
-67.35
-75.42
-78.99
-74.16
-58.56
-33.40
-3.89
23.66
44.43
57.66
65.43
70.72
75.04
77.60
76.75
71.26
62.09
51.13
40.58
31.69
23.95
16.81
9.44
1.81
-5.58
-11.99
-16.07
-16.14
-10.79
0.48
17.34
37.92
59.82
80.89
99.69
115.48
127.61
135.32
136.96
131.20
117.51
97.00
72.56
48.15
27.12
11.00
-0.77
-10.07
-18.35
-25.16
-28.16
-23.94
-11.44
7.03
25.40
36.44
35.16
21.20
-0.84
-24.22
-42.49
-52.23
-52.25
-42.95
-25.71
-3.12
18.97
32.60
29.47
6.34
-33.01
-77.49
-113.35
-130.27
-125.55
-104.11
-74.78
-46.24
-22.92
-5.29
8.13
19.17
28.29
35.89
42.16
48.13
54.65
61.70
67.77
70.37
67.08
56.47
38.96
16.20
-8.35
-30.91
-47.64
-55.79
-55.27
-48.25
-38.99
-31.63
-28.87
-30.40
-33.72
-35.30
-32.88
-25.52
-13.56
1.22
16.55
28.93
34.13
29.28
14.09
-7.35
-28.35
-41.88
-44.59
-38.18
-28.43
-21.97
-23.00
-32.05
-45.91
-60.32
-70.38
-72.26
-63.22
-42.62
-13.56
17.61
42.71
55.29
53.22
39.33
20.08
2.72
-7.83
-9.82
-3.98
7.14
20.82
33.94
43.40
47.78
48.21
48.48
52.65
62.85
77.46
92.51
104.03
110.07
110.68
106.23
96.28
79.05
53.93
22.65
-9.68
-36.11
-51.31
-53.55
-45.85
-34.06
-24.61
-21.89
-27.05
-37.67
-48.84
-55.65
-55.20
-48.42
-39.73
-34.51
-36.21
-43.95
-52.79
-57.09
-53.81
-43.89
-32.22
-24.48
-23.94
-30.04
-39.82
-49.40
-56.33
-60.54
-62.71
-63.18
-60.90
-53.49
-39.05
-18.17
5.34
25.89
38.25
40.95
36.46
30.25
27.47
29.47
32.91
31.40
19.37
-3.93
-32.75
-56.86
-65.85
-54.67
-25.88
11.36
44.67
63.57
63.09
45.72
19.38
-5.13
-18.77
-18.07
-5.81
10.23
21.37
22.34
13.67
0.27
-11.89
-19.32
-23.69
-29.46
-40.66
-56.96
-73.00
-80.76
-73.42
-49.01
-10.48
35.21
80.48
118.82
146.19
160.28
160.42
147.22
122.18
88.87
52.20
19.09
-3.73
-11.17
-2.15
18.71
43.00
60.49
63.51
49.53
22.63
-9.00
-36.07
-51.07
-50.79
-35.61
-9.38
21.60
48.99
64.37
61.57
38.46
-1.24
-49.65
-96.47
-132.21
-149.63
-144.47
-115.80
-66.11
-2.81
62.57
115.42
142.99
139.03
107.23
60.22
13.86
-18.98
-33.94
-35.20
-31.98
-32.25
-39.20
-50.81
-62.50
-71.13
-75.39
-75.59
-71.38
-61.97
-47.36
-29.42
-12.63
-1.53
1.68
-0.87
-4.66
-5.53
-3.21
-1.58
-5.47
-17.41
-34.42
-49.99
-57.46
-54.73
-44.82
-33.55
-25.98
-22.64
-20.54
-15.10
-4.66
8.74
19.98
24.79
22.81
17.34
14.20
16.89
25.82
37.81
48.57
55.79
59.45
61.46
63.38
65.95
68.20
69.46
69.16
67.14
63.50
57.83
49.65
38.90
27.10
16.26
8.15
3.17
-0.06
-3.34
-7.58
-11.38
-13.09
-11.63
-8.90
-8.62
-14.34
-26.85
-42.35
-54.71
-57.34
-47.39
-27.15
-2.76
18.18
30.64
33.28
29.16
22.68
18.00
16.33
16.02
14.15
8.55
-0.37
-9.70
-15.74
-16.48
-12.73
-7.99
-5.15
-4.77
-4.67
-1.50
5.81
14.99
21.09
20.29
11.76
-1.47
-14.18
-22.55
-24.90
-22.58
-17.90
-13.06
-9.50
-8.47
-11.22
-18.23
-29.00
-40.58
-49.43
-52.59
-49.60
-42.62
-35.04
-29.79
-28.23
-29.87
-32.16
-32.26
-26.76
-13.50
6.92
30.67
51.23
61.92
58.97
44.13
23.33
4.31
-6.79
-8.31
-2.43
5.69
11.21
10.57
3.41
-8.77
-22.28
-33.06
-37.99
-36.13
-29.07
-20.09
-13.07
-9.73
-9.61
-10.15
-8.28
-2.31
7.77
19.86
30.92
37.33
36.39
27.41
12.24
-4.84
-18.13
-21.92
-12.50
10.45
42.94
77.33
104.41
115.62
106.40
76.81
32.24
-18.64
-66.10
-102.04
-121.71
-124.80
-114.43
-96.03
-74.89
-54.30
-35.26
-17.27
-0.29
13.86
21.43
19.06
6.09
-13.91
-34.03
-47.35
-50.14
-43.10
-31.02
-19.57
-12.65
-10.97
-12.38
-13.91
-12.89
-8.53
-0.94
8.67
18.60
27.71
34.92
40.05
43.04
44.12
43.47
41.08
36.83
30.64
23.02
15.04
8.30
4.44
4.20
7.19
12.25
17.59
21.80
24.04
24.01
22.62
20.79
19.87
20.58
22.63
25.35
27.00
26.40
22.89
18.15
15.40
18.51
29.89
48.38
69.80
87.57
96.54
94.63
84.35
70.64
58.65
50.93
46.22
41.67
34.69
24.85
13.02
0.14
-14.41
-32.45
-55.27
-82.45
-110.94
-136.81
-155.96
-165.92
-165.85
-155.98
-137.53
-111.76
-80.60
-46.20
-11.52
20.67
47.43
65.59
72.34
65.54
46.07
18.98
-6.00
-17.70
-7.56
25.80
74.09
121.91
151.58
150.23
114.77
53.89
-15.27
-73.84
-108.04
-113.30
-94.09
-60.59
-23.28
9.77
34.22
48.05
50.33
40.71
20.51
-5.54
-30.19
-45.18
-45.66
-32.80
-13.81
1.33
4.74
-6.22
-27.81
-53.03
-75.16
-89.93
-95.86
-92.82
-80.77
-59.77
-32.04
-2.32
22.40
35.89
35.79
24.52
7.76
-8.84
-21.59
-29.54
-32.66
-30.56
-21.57
-4.55
19.39
46.21
69.86
85.94
93.19
93.89
91.87
89.63
86.65
80.15
68.05
50.85
32.52
18.04
10.65
9.56
9.73
5.50
-6.08
-22.73
-38.19
-46.06
-43.33
-32.07
-17.65
-5.81
0.93
3.26
4.28
6.86
12.51
20.42
28.66
34.23
33.68
24.55
6.34
-17.87
-40.93
-54.05
-50.80
-30.51
0.96
34.12
60.49
75.72
80.12
75.98
64.54
45.32
17.24
-19.04
-59.46
-97.68
-127.54
-145.26
-150.48
-144.78
-129.14
-102.97
-65.20
-16.61
37.71
87.66
121.53
130.85
114.89
82.47
48.34
26.87
24.90
39.20
59.37
74.60
79.45
75.67
69.05
64.32
62.18
59.10
50.86
35.61
14.19
-10.71
-36.72
-62.09
-85.24
-103.55
-114.15
-115.00
-106.82
-92.55
-75.05
-54.90
-29.92
1.76
38.14
72.07
93.06
92.98
69.99
30.41
-14.90
-55.09
-83.64
-99.03
-102.73
-97.18
-84.00
-64.52
-41.19
-19.05
-4.57
-2.83
-15.53
-39.21
-66.04
-86.57
-93.53
-84.69
-64.20
-40.23
-21.16
-11.75
-10.48
-11.26
-7.40
3.61
18.36
29.85
31.49
21.15
1.56
-21.20
-41.24
-54.14
-57.09
-47.86
-24.64
11.86
57.67
105.26
145.94
172.73
182.57
177.29
161.50
140.77
120.10
103.40
92.39
86.16
80.47
68.73
45.16
8.32
-37.05
-81.76
-115.68
-132.30
-130.65
-114.79
-90.94
-65.21
-41.82
-22.35
-6.87
5.58
15.57
22.76
26.22
24.74
19.03
11.94
7.76
9.95
17.72
25.32
24.74
10.76
-15.01
-43.16
-61.31
-61.34
-44.10
-19.35
-0.83
1.15
-14.91
-42.38
-70.12
-88.36
-92.20
-81.95
-61.06
-34.28
-6.79
16.83
32.15
36.84
31.23
18.50
4.03
-7.15
-11.63
-8.80
-0.32
11.14
22.87
32.76
39.83
43.47
42.44
35.02
19.65
-3.58
-31.50
-56.97
-70.81
-65.75
-40.70
-3.75
30.26
45.84
35.05
1.98
-39.11
-70.94
-82.47
-73.28
-52.63
-31.76
-18.00
-11.61
-8.09
-3.15
4.28
11.91
17.69
22.38
29.66
42.67
60.58
77.65
85.95
80.43
62.44
40.04
23.83
22.21
36.70
60.72
82.41
89.11
73.41
36.26
-12.58
-58.64
-88.98
-97.79
-88.43
-69.76
-51.07
-36.34
-23.79
-8.60
12.04
36.25
59.01
75.86
87.25
97.13
109.61
123.72
131.97
124.22
94.67
46.51
-8.41
-54.52
-80.42
-82.83
-66.60
-41.38
-16.23
2.33
11.12
8.89
-4.05
-26.15
-53.63
-80.43
-100.20
-108.07
-103.13
-88.44
-69.67
-51.79
-36.74
-22.45
-4.73
18.79
46.43
71.88
88.49
93.27
89.22
83.25
81.31
84.26
87.04
82.49
66.14
39.97
11.44
-11.10
-22.51
-23.07
-16.31
-5.95
6.82
23.06
43.96
68.31
91.12
104.97
102.34
79.02
36.41
-17.79
-71.16
-110.57
-127.13
-118.77
-90.70
-53.34
-17.84
6.84
15.98
9.32
-10.28
-38.23
-68.32
-94.13
-110.79
-116.17
-112.15
-103.15
-93.62
-85.41
-77.25
-65.86
-48.74
-26.40
-2.52
17.72
29.62
31.09
23.88
13.20
5.56
6.42
17.72
37.10
57.99
72.40
75.01
65.59
49.90
36.42
32.08
37.98
49.58
58.87
59.26
49.29
32.55
16.09
5.80
4.21
9.44
17.13
23.18
25.41
24.80
24.00
25.66
31.03
39.13
46.13
46.86
36.53
12.41
-23.09
-62.75
-95.65
-111.13
-103.31
-73.96
-32.32
9.09
38.63
50.63
45.15
27.14
2.74
-23.35
-47.80
-68.75
-83.53
-89.76
-85.46
-71.22
-50.82
-29.59
-12.84
-2.92
1.23
3.19
6.48
12.57
19.68
24.04
22.70
15.01
4.11
-5.54
-10.67
-11.64
-11.77
-15.26
-23.76
-34.62
-42.87
-43.73
-36.53
-24.19
-10.79
2.41
19.14
45.14
83.41
128.76
168.60
188.33
179.47
144.81
96.33
48.74
11.02
-16.53
-39.54
-62.67
-84.53
-98.19
-96.38
-77.96
-48.90
-19.72
1.01
10.55
11.85
9.89
7.44
3.68
-4.49
-18.77
-37.55
-55.66
-67.16
-68.37
-60.35
-48.90
-41.88
-45.20
-59.47
-79.14
-94.46
-96.92
-84.05
-60.33
-35.12
-16.26
-5.89
0.78
11.38
31.29
59.44
88.63
110.45
119.79
117.57
108.88
98.34
86.67
70.67
46.97
16.05
-16.15
-41.01
-51.16
-44.73
-24.80
3.07
34.32
66.26
96.52
120.71
131.95
124.37
97.31
57.43
17.25
-11.17
-22.04
-19.20
-13.39
-16.71
-35.95
-69.58
-109.28
-143.61
-163.29
-164.58
-149.89
-125.68
-99.45
-76.48
-58.43
-43.71
-29.19
-13.38
2.39
14.13
18.43
15.00
7.91
3.90
8.32
22.33
41.51
58.74
68.76
70.71
67.95
64.60
62.06
57.24
45.06
21.93
-10.83
-46.56
-76.29
-91.57
-87.11
-61.26
-16.56
40.85
101.10
151.95
181.46
181.80
153.11
104.06
49.30
3.60
-23.08
-29.24
-20.85
-7.78
0.52
-1.27
-13.68
-33.11
-53.93
-71.03
-81.15
-83.31
-78.22
-67.87
-55.21
-44.34
-39.49
-43.38
-55.46
-71.10
-84.02
-89.60
-87.25
-80.27
-72.75
-66.28
-59.18
-47.83
-30.14
-8.08
13.26
28.44
35.75
38.17
41.58
50.78
66.72
86.63
106.35
122.87
135.57
145.16
151.59
152.34
143.26
120.30
82.45
32.73
-22.09
-73.53
-114.16
-138.99
-145.89
-135.34
-109.86
-74.34
-36.25
-4.53
11.74
6.39
-21.42
-66.58
-118.39
-163.35
-188.53
-185.32
-152.16
-95.59
-29.05
31.41
72.30
87.43
79.91
61.10
45.92
46.22
66.18
99.83
134.76
157.63
160.88
145.79
121.07
97.55
81.83
73.79
67.71
57.56
41.86
25.55
16.58
20.42
35.82
54.32
64.48
57.52
32.66
-2.75
-37.11
-60.75
-70.93
-72.10
-72.77
-79.42
-93.22
-110.03
-123.51
-129.50
-127.71
-121.10
-113.11
-105.63
-98.54
-91.52
-84.99
-79.82
-76.07
-71.08
-60.39
-39.71
-7.95
32.04
74.23
111.68
137.91
147.66
137.26
104.99
54.14
-5.90
-60.79
-95.82
-101.95
-79.61
-38.48
8.21
49.52
80.54
101.26
112.50
113.04
99.68
70.75
30.13
-11.87
-42.51
-52.51
-41.19
-16.88
7.97
22.69
23.65
13.93
-0.16
-13.21
-22.84
-29.04
-31.53
-27.82
-14.34
11.23
47.03
85.99
117.31
130.15
117.75
80.13
25.42
-32.71
-78.67
-100.51
-94.24
-64.33
-22.03
19.92
51.52
68.14
69.63
58.78
39.63
16.36
-6.38
-23.99
-32.17
-28.21
-12.05
13.14
42.01
67.93
84.97
89.52
80.28
58.77
28.01
-7.89
-44.97
-79.06
-105.60
-120.75
-122.09
-110.93
-92.12
-72.99
-59.51
-53.71
-53.76
-55.36
-55.36
-52.36
-46.72
-38.28
-25.55
-6.99
17.13
43.04
64.72
76.17
75.10
63.64
47.69
33.12
23.50
18.94
17.17
15.79
13.26
9.81
5.84
2.01
-0.71
-1.27
1.71
8.84
20.02
33.59
47.52
59.93
68.75
72.47
69.60
60.43
47.26
34.83
27.81
28.46
34.62
39.92
37.53
23.95
2.06
-20.08
-32.70
-29.97
-12.49
12.48
34.12
42.35
30.92
-0.19
-45.37
-95.02
-138.73
-168.16
-179.07
-172.20
-151.52
-122.09
-88.40
-54.09
-22.34
3.71
20.96
27.32
23.16
11.91
-1.09
-10.01
-11.40
-5.31
4.59
12.41
12.88
3.51
-13.31
-31.17
-41.77
-38.34
-19.43
10.53
42.04
64.63
71.59
62.95
45.26
28.91
23.99
36.03
63.65
98.94
130.13
145.26
136.90
104.80
55.85
0.52
-51.30
-94.40
-128.22
-153.70
-170.56
-175.07
-162.94
-133.56
-92.47
-51.20
-21.66
-10.58
-15.78
-27.64
-34.89
-29.73
-11.68
13.72
38.54
56.54
65.08
64.86
58.24
46.96
31.83
13.21
-7.13
-25.82
-38.58
-42.26
-37.47
-28.86
-23.18
-25.54
-36.71
-51.69
-62.77
-62.93
-49.31
-24.20
7.08
38.51
66.70
90.45
110.64
128.28
143.44
155.42
162.76
164.06
158.64
147.58
133.31
118.97
106.96
97.33
87.96
74.83
54.64
26.51
-6.50
-38.26
-62.53
-75.45
-77.76
-72.74
-64.16
-53.70
-41.09
-26.27
-10.67
2.29
8.88
7.23
-1.20
-13.38
-26.03
-37.64
-48.96
-61.68
-76.92
-93.98
-111.44
-127.41
-140.44
-148.60
-148.98
-138.38
-114.35
-77.33
-30.75
19.80
68.28
109.20
138.11
152.11
150.04
133.39
105.77
71.37
33.40
-6.83
-48.63
-89.31
-122.83
-140.52
-134.68
-103.75
-53.85
2.53
52.00
85.53
101.08
102.95
97.09
88.09
77.43
64.56
49.03
31.37
14.24
0.90
-5.88
-5.91
-1.77
1.87
0.34
-8.79
-24.57
-43.40
-61.87
-78.81
-95.82
-114.51
-132.96
-144.58
-139.94
-112.11
-61.20
3.55
67.56
116.75
143.73
149.90
142.78
131.94
124.19
121.20
119.81
114.40
100.05
74.62
40.15
1.90
-32.72
-57.35
-68.38
-66.52
-56.65
-45.90
-40.61
-43.47
-52.82
-63.04
-67.77
-62.34
-45.56
-20.71
6.50
29.73
45.18
53.21
57.90
64.47
75.75
90.63
103.61
107.74
98.07
74.13
40.52
4.65
-26.96
-51.02
-67.25
-76.47
-77.74
-69.08
-49.97
-24.10
-0.27
10.90
1.80
-27.46
-68.64
-108.10
-133.55
-138.19
-122.63
-92.96
-56.70
-20.15
12.44
38.20
55.20
62.67
61.12
52.66
39.62
23.67
5.27
-14.76
-33.92
-47.48
-50.41
-39.98
-18.20
7.73
28.55
36.41
28.33
7.33
-19.68
-45.00
-63.55
-74.36
-80.24
-85.11
-91.81
-99.14
-102.10
-93.61
-68.54
-27.57
21.47
65.47
91.56
92.47
69.38
31.12
-10.61
-45.68
-68.65
-77.88
-73.98
-58.35
-33.12
-1.86
30.43
58.89
80.99
96.52
106.60
110.94
107.48
94.19
72.26
47.94
30.16
25.61
33.10
43.27
42.51
21.75
-17.76
-64.42
-102.27
-119.53
-113.43
-90.21
-59.51
-28.61
0.51
29.63
59.76
87.80
105.97
105.68
82.66
41.00
-7.40
-47.80
-69.01
-68.29
-51.08
-27.54
-6.11
10.41
25.14
43.65
67.70
92.79
109.29
108.90
89.71
58.67
27.68
6.89
-0.87
-1.02
-2.08
-9.68
-22.29
-32.70
-33.14
-21.15
-2.24
13.09
15.21
1.70
-22.15
-46.60
-63.30
-69.38
-67.62
-62.54
-55.47
-43.52
-21.14
14.05
57.71
99.10
125.81
130.57
114.88
88.83
64.76
51.16
48.36
50.17
48.82
39.58
23.35
4.91
-10.04
-17.90
-18.28
-13.55
-7.70
-4.99
-9.73
-24.53
-49.04
-78.67
-105.16
-119.08
-114.70
-93.42
-63.43
-36.30
-20.51
-18.36
-25.94
-37.43
-49.12
-60.45
-71.89
-80.30
-78.30
-57.09
-13.29
45.91
103.24
138.60
140.25
110.77
66.34
27.50
9.01
12.97
29.86
46.01
51.32
43.82
28.00
10.19
-6.02
-20.30
-33.47
-45.29
-53.83
-57.42
-55.93
-51.61
-47.04
-42.72
-36.52
-25.20
-8.03
11.79
27.32
31.05
18.64
-7.97
-41.09
-70.31
-85.78
-82.12
-59.53
-24.02
15.43
49.66
72.17
79.93
72.89
53.42
25.53
-4.57
-29.01
-39.73
-31.88
-6.80
27.26
57.31
71.49
63.77
36.66
-0.64
-36.53
-61.28
-69.91
-61.61
-39.02
-6.84
27.96
56.80
71.04
65.05
39.45
1.32
-37.34
-65.02
-74.78
-67.07
-48.66
-28.53
-13.81
-5.83
-0.89
6.54
19.58
36.30
49.98
52.62
40.00
13.83
-18.08
-45.36
-59.63
-57.78
-43.11
-23.33
-7.66
-2.46
-10.06
-27.97
-50.52
-71.05
-84.07
-86.91
-79.79
-65.95
-49.71
-35.30
-24.58
-16.68
-9.10
0.69
12.62
24.55
32.90
35.68
34.05
31.97
34.04
42.18
54.91
67.93
77.51
82.50
84.04
83.20
79.30
70.75
56.62
39.36
24.09
16.50
19.26
30.58
45.68
59.17
67.15
67.55
59.03
40.38
12.40
-20.51
-49.56
-64.08
-57.36
-30.84
5.54
38.10
56.96
60.74
56.22
53.27
57.83
68.11
76.27
73.77
57.64
32.29
6.56
-11.42
-18.56
-17.14
-12.18
-7.25
-3.56
-0.80
-0.04
-5.10
-20.72
-48.68
-84.54
-118.16
-137.44
-134.95
-112.14
-78.63
-47.30
-27.11
-18.86
-16.73
-13.55
-6.33
1.46
3.46
-4.81
-22.54
-43.34
-59.37
-64.82
-58.23
-41.35
-17.86
8.14
32.62
50.96
59.70
56.91
44.13
25.40
5.19
-13.24
-29.05
-42.00
-51.37
-55.51
-53.42
-45.71
-34.77
-23.29
-11.71
1.93
20.94
46.80
77.69
108.49
132.94
145.75
142.98
122.75
84.77
31.88
-29.09
-86.58
-126.93
-138.51
-115.93
-62.98
9.08
84.26
146.80
184.67
191.87
169.96
126.91
75.03
26.87
-9.12
-31.58
-44.99
-56.57
-72.04
-92.32
-113.91
-131.10
-139.57
-137.71
-126.53
-107.54
-81.48
-49.29
-13.55
20.01
43.39
49.33
34.75
3.15
-35.59
-68.77
-86.26
-84.84
-70.09
-53.06
-44.24
-47.97
-59.81
-69.82
-67.73
-48.47
-14.83
23.48
54.68
70.27
68.26
53.88
36.44
25.86
28.11
43.75
67.46
90.43
103.60
100.80
81.01
47.80
7.87
-31.36
-63.44
-83.84
-90.55
-84.60
-69.96
-51.48
-33.66
-19.19
-8.93
-2.30
1.85
5.14
9.69
17.52
29.99
45.98
62.04
73.40
76.74
72.62
65.21
60.69
62.97
71.28
79.39
79.24
65.04
37.16
3.54
-23.30
-31.12
-14.10
24.07
70.97
110.86
131.08
126.46
100.64
62.87
23.49
-9.60
-31.47
-40.26
-35.71
-20.30
-0.16
16.50
21.51
11.72
-9.75
-34.39
-52.93
-60.48
-58.52
-53.65
-52.97
-60.73
-75.60
-91.90
-102.34
-101.17
-87.06
-63.36
-37.87
-19.71
-16.60
-30.79
-57.58
-86.55
-105.90
-108.31
-94.09
-70.83
-48.14
-32.99
-26.39
-25.31
-27.08
-31.82
-42.51
-60.12
-80.61
-94.44
-91.16
-66.13
-24.05
22.26
58.29
73.87
67.43
44.56
14.12
-16.05
-42.27
-63.43
-79.72
-89.99
-91.89
-82.63
-61.14
-29.37
7.89
43.99
73.04
91.85
101.65
106.97
114.13
128.17
150.50
178.80
207.30
228.93
237.41
229.63
206.49
172.44
133.55
94.59
57.41
20.98
-16.11
-53.29
-86.03
-106.49
-107.11
-84.19
-41.84
8.47
51.45
74.53
73.04
51.39
20.57
-7.62
-25.41
-30.82
-26.59
-17.70
-9.44
-6.53
-13.22
-31.41
-59.46
-91.13
-117.11
-128.58
-122.04
-101.00
-73.94
-49.80
-32.77
-21.04
-9.38
6.33
26.11
45.86
60.75
68.32
69.56
67.38
63.38
56.81
45.43
27.80
5.79
-15.54
-30.27
-34.61
-29.05
-17.78
-6.72
-0.72
-1.64
-7.58
-14.22
-15.97
-8.84
7.93
30.55
51.88
64.37
63.06
47.53
21.02
-11.95
-47.86
-84.12
-118.16
-144.94
-157.15
-148.00
-114.87
-63.45
-6.79
38.48
58.36
47.50
11.30
-36.25
-78.64
-103.58
-107.40
-95.11
-77.02
-62.14
-53.42
-47.41
-37.11
-17.62
10.06
38.90
60.26
68.99
66.85
61.47
61.74
72.38
90.90
109.58
119.82
117.15
103.44
84.57
67.06
53.25
41.41
27.62
9.87
-9.33
-23.93
-27.43
-17.22
3.50
26.78
44.66
52.74
52.54
50.06
50.92
56.76
63.93
65.82
56.10
33.11
0.40
-34.97
-65.41
-86.02
-95.44
-95.79
-90.35
-82.40
-73.88
-66.11
-60.86
-59.74
-64.28
-73.88
-85.98
-96.41
-100.98
-96.93
-83.23
-60.71
-31.07
2.26
34.12
57.64
66.54
58.56
37.62
13.08
-5.42
-12.19
-9.07
-2.86
-1.04
-7.14
-19.04
-31.49
-39.86
-43.38
-43.94
-43.90
-42.91
-36.93
-21.20
6.52
42.72
78.88
104.79
113.91
106.51
89.50
72.87
64.62
67.52
78.62
92.09
102.35
106.22
102.56
91.82
75.92
57.51
40.42
27.70
20.16
15.27
7.92
-6.94
-30.64
-58.67
-83.15
-96.23
-95.06
-83.75
-70.18
-61.43
-58.65
-56.34
-44.94
-17.67
24.98
73.96
115.56
137.95
136.54
115.33
83.62
51.67
26.07
8.95
-1.54
-9.31
-18.07
-29.99
-44.34
-58.09
-67.42
-70.14
-66.75
-60.41
-55.00
-52.56
-53.62
-57.17
-62.47
-68.96
-75.31
-78.49
-74.63
-61.72
-41.24
-19.35
-3.55
0.93
-6.24
-20.93
-37.23
-50.10
-56.73
-55.61
-46.18
-29.01
-7.01
14.65
30.47
37.75
38.74
38.55
41.69
48.16
53.84
53.52
45.26
32.65
22.02
17.88
18.13
14.72
-2.04
-36.46
-82.98
-127.09
-150.61
-140.26
-93.10
-19.05
62.84
131.06
169.38
172.52
147.15
108.72
74.11
54.96
53.98
65.87
81.22
91.42
92.24
83.79
69.05
50.15
27.04
-2.38
-39.67
-83.01
-125.54
-156.55
-165.67
-147.16
-103.91
-47.24
6.75
43.25
54.26
40.87
11.57
-23.29
-55.20
-79.90
-96.18
-103.45
-100.86
-87.51
-65.20
-39.71
-20.02
-14.08
-24.25
-44.39
-60.96
-59.48
-31.47
19.82
80.50
131.33
156.15
148.13
112.07
61.66
13.40
-18.58
-27.05
-12.17
19.66
58.76
94.40
117.34
121.72
105.99
74.34
35.61
0.82
-21.32
-28.16
-24.06
-17.66
-16.01
-20.75
-26.99
-27.46
-18.50
-3.87
6.41
1.76
-22.51
-60.71
-99.34
-123.55
-125.24
-107.16
-80.47
-58.41
-48.67
-50.17
-54.80
-53.58
-41.69
-20.50
4.36
27.01
44.05
54.87
60.07
60.42
57.08
53.19
53.88
62.98
79.42
95.09
97.71
78.23
37.84
-10.52
-47.12
-55.23
-30.61
16.64
66.58
98.63
100.21
69.88
16.07
-48.18
-109.57
-157.91
-186.46
-192.24
-175.89
-141.87
-97.42
-51.03
-10.42
19.51
36.92
42.79
40.19
33.50
27.97
28.33
37.53
54.95
76.10
93.68
100.83
94.19
74.79
47.82
20.30
-0.85
-10.36
-5.76
11.90
37.79
64.62
84.58
93.04
89.88
79.53
68.62
62.99
64.75
72.22
81.30
87.00
85.49
74.14
51.97
20.12
-16.66
-49.96
-70.12
-70.11
-49.70
-16.92
13.71
27.14
14.17
-24.59
-78.54
-131.99
-170.20
-185.37
-178.47
-157.76
-133.88
-115.00
-104.55
-100.88
-99.64
-96.22
-87.14
-69.92
-42.51
-2.93
49.33
111.17
175.11
229.50
262.33
265.41
238.44
189.68
132.67
80.29
39.81
10.93
-12.10
-34.56
-57.57
-76.26
-82.41
-69.97
-39.02
2.56
41.75
64.90
62.91
34.66
-12.71
-65.91
-110.19
-134.06
-133.78
-114.34
-87.87
-67.85
-63.74
-77.12
-101.40
-126.18
-142.01
-144.35
-134.17
-116.55
-97.32
-80.86
-68.90
-60.51
-53.08
-42.20
-23.35
6.62
46.99
92.11
133.31
161.75
172.68
166.25
146.33
117.77
84.19
48.70
15.44
-8.68
-16.01
-1.52
32.38
74.62
108.57
119.78
103.54
67.55
28.67
3.70
0.81
15.64
34.86
43.97
35.23
11.26
-18.33
-43.21
-58.71
-66.60
-72.27
-79.93
-89.51
-97.78
-100.24
-94.40
-80.87
-63.17
-46.71
-37.21
-38.55
-50.32
-67.60
-82.26
-87.32
-80.82
-66.61
-51.07
-38.36
-27.79
-13.98
7.83
37.39
67.88
90.00
97.83
92.71
82.86
78.22
85.86
106.39
135.44
165.77
190.35
203.40
200.22
178.26
137.81
83.23
22.63
-34.20
-79.17
-107.78
-119.61
-117.44
-105.01
-86.26
-65.26
-45.80
-30.34
-18.95
-9.56
1.04
14.58
30.40
45.05
54.24
55.19
48.47
38.18
29.62
27.43
32.56
41.67
47.75
42.82
21.75
-15.15
-60.72
-103.74
-133.56
-144.52
-137.52
-118.63
-94.56
-69.45
-44.68
-20.91
-0.49
12.40
13.47
1.89
-17.89
-36.70
-44.27
-33.86
-5.30
34.83
75.93
106.91
120.44
115.51
97.39
76.15
62.53
63.02
76.95
96.49
110.11
108.21
88.12
54.90
18.40
-12.24
-32.72
-45.30
-55.67
-68.60
-84.51
-99.53
-108.29
-106.71
-94.11
-73.05
-48.38
-26.35
-13.76
-16.23
-36.40
-71.33
-111.79
-145.68
-163.09
-161.46
-146.80
-130.31
-121.22
-121.27
-124.29
-120.31
-103.38
-75.10
-44.05
-20.26
-8.84
-7.47
-8.41
-3.56
10.69
31.71
53.55
70.68
81.39
88.36
96.30
108.59
125.12
142.12
154.14
157.14
149.74
134.33
116.27
101.25
92.50
89.06
86.73
79.89
65.54
45.62
27.05
18.27
23.69
40.78
59.84
68.99
60.97
37.21
6.95
-17.60
-27.55
-21.93
-6.75
8.48
16.15
13.69
3.13
-11.13
-25.41
-37.97
-48.77
-57.47
-63.17
-64.30
-59.87
-50.99
-40.58
-32.78
-29.92
-31.29
-33.05
-31.30
-24.97
-17.80
-17.43
-30.54
-58.62
-94.97
-126.39
-138.76
-124.05
-85.47
-36.53
4.27
22.19
12.27
-18.34
-53.76
-76.64
-74.61
-44.71
7.09
68.60
126.48
169.33
189.45
183.72
153.56
105.39
49.86
-0.57
-35.42
-49.56
-45.33
-30.44
-13.95
-2.20
3.61
5.85
7.73
10.67
14.11
16.84
18.37
19.39
20.13
19.04
13.46
2.17
-12.47
-24.28
-26.33
-15.79
3.69
22.44
30.24
21.94
0.06
-26.90
-49.76
-63.94
-70.94
-76.03
-83.05
-90.72
-93.11
-83.09
-57.55
-20.07
20.03
51.95
68.35
68.10
56.64
42.78
34.63
36.48
47.19
60.67
68.21
62.06
38.32
-0.34
-44.43
-81.31
-99.85
-96.23
-76.40
-53.16
-39.27
-40.36
-52.33
-63.47
-62.17
-43.77
-12.75
20.73
47.62
65.52
79.23
96.26
121.09
150.98
177.40
189.75
180.81
149.80
102.52
49.44
1.91
-31.11
-46.43
-47.10
-40.64
-34.78
-33.39
-35.29
-35.63
-29.60
-15.87
2.12
18.49
27.63
26.60
16.13
-0.53
-18.52
-32.87
-39.35
-36.19
-24.96
-10.25
2.16
8.65
8.80
4.82
-1.72
-12.24
-30.60
-58.81
-93.02
-122.45
-133.19
-115.82
-71.38
-12.95
39.64
68.07
62.87
26.41
-29.75
-89.72
-139.54
-169.91
-177.10
-161.57
-126.04
-74.59
-12.15
55.02
119.68
173.14
206.59
213.15
190.77
145.18
89.51
40.50
11.41
6.79
20.33
39.25
51.15
50.23
39.23
25.86
17.07
14.26
13.59
10.05
2.37
-4.83
-4.39
8.14
29.31
48.09
51.64
32.66
-5.73
-51.21
-88.70
-108.13
-108.07
-94.44
-74.63
-52.53
-28.11
-1.29
23.84
38.87
35.03
10.93
-24.95
-57.28
-72.50
-66.90
-48.62
-32.08
-28.42
-38.76
-53.43
-58.14
-43.27
-10.27
28.20
54.59
55.72
29.97
-11.45
-49.89
-68.10
-57.98
-23.62
21.80
62.49
86.32
88.17
68.99
33.45
-12.38
-60.91
-102.57
-127.71
-129.61
-109.53
-77.45
-48.38
-34.68
-39.11
-53.71
-64.43
-60.31
-39.22
-7.77
23.85
48.65
65.93
79.23
91.22
100.69
103.25
95.69
79.08
58.68
40.25
26.00
13.92
0.42
-15.27
-29.79
-37.04
-32.43
-15.84
8.81
35.66
60.40
80.66
95.03
102.12
100.79
91.11
74.78
55.39
36.12
18.82
4.18
-6.62
-11.20
-6.78
7.82
30.08
53.87
71.17
75.82
64.84
39.32
3.72
-35.59
-70.75
-94.03
-100.08
-89.22
-68.35
-48.66
-41.38
-52.37
-80.51
-118.31
-155.63
-183.47
-195.86
-189.63
-164.31
-122.14
-68.18
-11.11
38.54
71.07
81.45
71.18
47.85
22.52
5.78
4.38
18.25
40.76
60.24
65.11
49.70
17.40
-19.82
-47.18
-53.98
-39.44
-11.83
16.90
38.15
51.30
61.63
75.39
94.10
112.89
124.17
123.30
111.21
93.31
75.38
59.10
41.77
18.73
-12.09
-47.54
-79.70
-99.74
-102.95
-90.47
-69.14
-46.81
-28.68
-15.14
-3.23
10.00
24.23
34.75
35.59
22.88
-0.98
-27.64
-46.02
-47.70
-31.78
-5.04
21.96
41.18
51.41
58.53
70.79
92.12
118.29
138.17
140.84
122.44
90.50
60.27
47.32
58.51
88.09
121.23
141.28
138.26
112.02
71.13
26.54
-13.14
-44.04
-66.55
-82.31
-92.59
-97.18
-95.92
-89.94
-82.71
-79.09
-83.20
-95.99
-112.89
-125.81
-126.21
-109.39
-77.36
-38.35
-3.42
18.46
23.49
14.66
-1.23
-16.60
-27.24
-33.38
-38.03
-44.05
-50.22
-51.65
-41.55
-16.49
20.14
58.21
84.62
89.91
72.69
40.78
6.15
-21.35
-39.19
-51.20
-62.80
-75.90
-86.53
-88.80
-79.76
-63.07
-46.53
-36.99
-34.52
-32.24
-21.15
3.44
37.35
69.67
88.41
87.64
70.10
44.28
19.77
2.30
-6.08
-5.11
5.66
26.42
54.66
83.42
102.22
101.46
76.35
30.63
-24.37
-73.95
-105.46
-112.87
-98.66
-72.31
-45.45
-27.79
-22.94
-28.23
-36.30
-39.10
-31.60
-13.16
13.17
42.98
71.82
96.06
111.65
113.83
98.96
66.98
23.53
-20.65
-53.31
-66.18
-58.69
-39.01
-20.14
-13.41
-23.27
-45.29
-68.78
-82.99
-82.13
-66.45
-40.70
-10.98
17.97
42.22
58.11
62.47
54.39
37.28
18.84
8.16
11.27
27.71
50.07
68.83
77.43
75.10
65.91
54.93
45.25
37.62
32.69
31.78
36.62
46.82
58.45
64.99
59.79
39.99
8.40
-26.92
-56.04
-71.02
-69.00
-53.67
-33.35
-18.24
-16.72
-32.18
-61.09
-93.75
-118.08
-125.05
-113.15
-88.31
-61.58
-43.66
-40.63
-52.26
-72.59
-92.70
-103.81
-100.34
-80.85
-49.01
-12.31
19.81
38.40
39.01
23.23
-0.70
-21.55
-29.10
-18.37
9.08
46.83
85.76
116.97
134.05
134.44
120.09
96.54
71.78
53.35
46.09
49.60
59.26
67.81
69.29
61.44
46.02
27.54
10.39
-2.89
-12.01
-17.22
-18.79
-16.16
-8.94
1.64
12.09
17.07
12.47
-2.30
-23.22
-43.81
-58.98
-67.65
-72.64
-77.47
-83.10
-86.64
-83.98
-73.03
-55.77
-36.90
-20.04
-5.43
10.27
30.01
53.63
76.64
92.39
96.19
87.68
69.94
46.61
20.19
-8.40
-37.49
-63.59
-82.15
-90.12
-87.68
-77.11
-60.48
-37.51
-6.53
32.45
73.96
107.33
121.82
112.45
84.77
51.88
28.47
22.15
29.64
39.17
38.20
21.15
-8.03
-38.11
-57.93
-62.32
-54.27
-42.01
-33.33
-31.54
-34.68
-38.44
-40.15
-41.01
-44.37
-52.51
-63.36
-70.16
-64.93
-43.53
-9.43
27.43
55.15
66.12
60.91
46.75
32.51
23.05
17.69
11.64
0.62
-15.71
-33.56
-47.71
-55.33
-57.32
-57.16
-57.82
-58.85
-56.14
-44.22
-20.42
12.33
45.36
67.38
68.69
46.01
4.81
-42.18
-79.30
-94.07
-81.90
-47.42
-1.48
42.79
73.78
84.39
72.71
42.15
1.47
-36.32
-57.36
-51.59
-16.92
39.24
102.63
157.14
190.07
195.42
174.27
133.10
82.34
34.35
-0.03
-13.84
-7.65
11.21
31.54
43.71
44.15
35.56
24.00
14.24
7.47
1.89
-3.71
-8.83
-12.14
-13.41
-15.35
-21.76
-35.09
-53.71
-72.65
-86.26
-91.59
-89.20
-81.96
-72.72
-62.55
-51.78
-40.82
-31.49
-25.53
-23.05
-22.38
-20.62
-16.19
-8.56
1.67
14.37
29.68
46.96
63.89
76.75
82.85
82.22
78.81
77.18
79.72
84.74
87.28
82.98
70.06
50.45
26.90
0.60
-29.48
-63.85
-99.63
-129.64
-144.40
-137.27
-108.34
-66.13
-24.39
2.95
8.16
-6.61
-30.95
-50.67
-55.35
-43.28
-22.80
-6.76
-5.06
-18.19
-36.87
-48.12
-43.32
-24.85
-4.99
0.75
-17.43
-57.88
-108.95
-154.70
-182.84
-188.70
-175.23
-148.57
-113.48
-71.43
-21.69
34.78
93.19
144.77
180.93
196.42
191.82
173.24
149.01
126.24
107.51
90.88
71.19
44.31
9.65
-27.89
-58.78
-72.55
-61.65
-25.56
28.55
87.86
138.35
169.34
175.57
157.23
118.06
64.10
3.42
-53.72
-95.80
-112.90
-100.63
-63.54
-14.56
28.33
49.61
42.38
11.48
-29.03
-62.35
-75.77
-65.58
-36.92
-0.94
31.13
52.04
60.57
60.44
56.61
52.43
47.26
37.41
19.27
-6.89
-35.20
-56.29
-61.77
-49.66
-26.46
-4.62
4.63
-2.45
-19.30
-32.93
-32.07
-13.64
14.94
40.07
48.77
35.44
3.54
-36.70
-72.76
-94.68
-97.52
-82.27
-54.38
-22.11
6.14
23.98
28.50
21.95
10.10
-0.32
-4.94
-4.06
-2.01
-4.79
-16.32
-36.80
-61.86
-85.34
-101.67
-107.99
-104.48
-92.70
-74.09
-48.74
-16.57
21.46
61.62
97.83
123.26
132.35
122.89
96.23
57.24
12.53
-30.93
-67.81
-94.94
-111.01
-116.06
-109.35
-89.90
-57.54
-15.27
29.34
65.47
83.00
77.67
53.45
22.44
-0.54
-4.16
14.74
50.05
89.27
118.60
128.11
114.44
82.30
42.35
6.88
-15.22
-22.54
-20.81
-18.82
-21.80
-27.84
-28.57
-15.52
13.81
53.08
89.59
111.34
112.75
96.46
69.76
39.62
9.11
-21.21
-50.12
-73.89
-87.01
-86.21
-73.01
-53.37
-34.05
-18.81
-6.83
4.79
16.50
25.06
24.61
11.65
-11.73
-37.72
-56.43
-61.46
-52.62
-35.99
-19.46
-9.26
-6.98
-10.19
-14.82
-17.21
-16.18
-12.81
-10.11
-10.76
-16.49
-26.21
-36.78
-44.05
-44.60
-38.15
-27.42
-16.97
-10.94
-11.71
-18.58
-28.22
-36.36
-39.12
-35.10
-24.74
-10.36
5.92
23.56
43.29
65.86
89.96
112.53
129.18
137.31
136.95
129.92
117.57
98.68
70.52
31.08
-16.84
-65.33
-102.46
-117.46
-105.79
-70.90
-23.75
21.74
53.43
65.26
58.14
39.11
17.74
1.82
-5.82
-7.54
-7.81
-9.95
-13.11
-13.10
-5.72
9.01
25.51
35.63
32.90
17.16
-5.31
-25.79
-38.47
-43.44
-45.43
-49.78
-57.87
-66.62
-70.89
-67.32
-56.34
-40.70
-23.47
-5.89
12.00
29.67
43.65
48.91
41.79
23.14
-1.28
-22.96
-34.30
-32.03
-16.89
7.34
35.85
63.76
85.88
97.95
96.99
82.79
58.76
30.43
3.78
-16.75
-29.58
-35.38
-36.16
-33.57
-27.70
-18.02
-3.97
13.68
32.15
47.35
54.96
52.43
39.94
20.30
-2.30
-24.14
-42.76
-57.12
-66.54
-70.82
-69.74
-64.40
-57.17
-51.06
-48.95
-52.08
-59.78
-70.42
-81.99
-93.20
-102.92
-109.55
-111.13
-105.61
-92.16
-72.64
-50.95
-32.59
-22.17
-21.17
-27.04
-33.33
-33.62
-24.72
-8.66
8.28
20.25
25.49
28.49
37.04
57.77
90.98
130.14
164.50
184.72
186.96
173.03
147.98
116.85
83.99
53.76
31.65
22.84
29.07
46.30
64.83
73.87
66.04
40.92
4.75
-33.01
-63.32
-80.22
-80.70
-64.68
-33.81
7.27
50.79
87.27
107.58
106.52
83.88
44.29
-5.55
-58.29
-107.73
-148.93
-178.08
-193.42
-194.71
-184.54
-167.06
-147.47
-129.83
-115.64
-103.25
-88.54
-67.50
-37.87
-0.91
38.66
73.46
96.06
101.54
89.76
65.86
38.06
15.67
4.94
8.03
23.37
46.90
74.06
100.28
121.53
133.20
131.95
117.02
92.52
66.63
48.13
42.27
47.67
57.49
63.80
62.21
53.41
41.97
32.03
25.13
19.76
13.53
6.18
-0.72
-4.42
-3.58
1.06
6.75
10.44
10.02
4.28
-7.00
-23.58
-44.02
-65.56
-84.66
-97.85
-103.87
-103.60
-100.37
-97.73
-98.20
-101.86
-106.24
-106.54
-98.19
-79.00
-50.46
-18.21
11.32
32.97
45.92
53.43
59.96
68.63
78.89
87.99
92.81
93.00
89.89
84.72
76.40
61.51
37.86
7.26
-22.99
-43.32
-46.98
-34.27
-13.27
4.79
10.59
1.48
-17.75
-37.94
-51.07
-53.07
-45.24
-32.93
-21.73
-16.06
-17.16
-23.40
-31.21
-37.05
-38.55
-35.27
-28.84
-21.43
-15.06
-10.15
-5.79
-0.40
7.22
16.63
26.14
33.29
36.81
36.90
35.18
33.85
34.40
37.21
41.12
44.14
43.88
38.41
26.69
9.72
-9.52
-26.87
-38.55
-42.92
-41.27
-37.07
-33.31
-31.05
-28.95
-24.95
-18.62
-11.92
-8.31
-10.22
-17.07
-25.50
-31.30
-31.81
-26.93
-18.78
-9.43
-0.39
7.14
11.62
11.57
7.08
1.09
-0.85
6.31
23.76
47.12
68.16
78.65
74.80
58.81
37.21
17.76
5.86
3.95
12.36
30.37
55.92
84.26
108.31
120.19
114.49
90.94
54.42
12.94
-26.02
-57.43
-79.15
-90.21
-90.48
-80.61
-63.03
-42.61
-24.93
-13.76
-7.97
-2.12
10.85
33.97
63.17
88.06
96.84
83.62
51.90
13.80
-16.97
-32.13
-33.54
-30.77
-34.55
-50.75
-76.75
-104.39
-124.63
-133.34
-132.95
-129.71
-128.89
-130.65
-130.38
-121.08
-98.84
-64.88
-25.25
12.51
42.76
62.95
73.33
74.04
64.65
44.55
15.87
-15.31
-40.19
-51.05
-45.67
-27.70
-5.06
15.51
31.64
45.84
62.55
83.73
107.01
126.01
134.82
131.46
119.72
106.89
99.30
98.30
99.63
97.34
87.74
72.98
59.21
52.19
52.16
52.06
41.92
15.33
-24.10
-63.38
-86.40
-83.76
-58.83
-26.91
-7.50
-13.19
-43.41
-84.57
-118.48
-132.65
-126.70
-111.64
-102.02
-106.97
-124.57
-143.74
-150.42
-134.90
-96.07
-40.44
21.03
77.18
118.91
140.51
140.28
121.61
92.11
61.58
38.46
26.42
23.88
26.10
28.97
31.42
35.00
41.43
49.82
57.14
59.52
54.96
43.72
27.59
8.59
-11.72
-31.27
-46.93
-54.61
-52.28
-41.87
-29.90
-25.76
-36.47
-62.91
-98.10
-129.67
-145.09
-137.48
-107.57
-63.36
-16.58
21.33
43.08
47.82
40.72
30.47
25.58
30.73
44.80
61.13
71.53
70.39
58.08
40.43
25.90
21.18
27.96
42.51
57.46
65.32
60.16
39.38
4.20
-40.14
-85.08
-121.13
-140.32
-139.11
-119.94
-90.76
-61.75
-41.28
-32.85
-34.40
-40.45
-44.72
-43.11
-34.31
-19.58
-1.00
19.25
39.37
57.90
73.26
84.42
90.51
91.87
90.21
87.87
86.85
87.47
88.42
87.30
82.30
72.22
56.72
36.07
10.57
-18.69
-48.67
-74.95
-92.64
-97.83
-89.81
-71.71
-49.10
-28.64
-15.47
-11.92
-16.69
-26.18
-35.53
-40.94
-41.02
-36.88
-32.20
-30.34
-33.55
-41.67
-52.39
-62.37
-67.85
-65.50
-52.52
-28.14
6.10
45.80
84.47
115.90
136.62
146.60
149.30
149.14
148.66
147.07
140.62
125.14
99.47
67.21
36.21
14.83
7.60
12.13
20.35
22.82
13.69
-5.91
-29.88
-50.92
-65.22
-73.08
-76.86
-77.40
-72.53
-59.65
-39.01
-17.02
-4.68
-12.42
-44.10
-93.67
-146.76
-186.59
-201.36
-188.61
-156.00
-116.48
-81.84
-57.24
-40.24
-24.78
-6.39
12.92
25.50
22.56
1.37
-30.76
-58.28
-64.92
-43.44
-0.45
45.75
75.33
77.00
54.43
23.77
4.03
7.28
32.54
68.05
98.49
113.65
112.54
101.16
87.46
76.09
68.21
63.29
62.47
68.19
81.78
100.13
114.95
116.14
97.22
59.83
13.50
-28.54
-56.15
-65.80
-60.40
-46.73
-31.30
-19.24
-13.04
-13.53
-19.15
-26.38
-30.98
-29.69
-22.92
-14.49
-10.73
-17.12
-35.54
-63.17
-93.16
-117.57
-129.26
-124.40
-103.19
-70.76
-36.37
-10.51
-0.63
-6.79
-20.99
-30.51
-24.51
0.31
37.59
75.19
102.03
113.15
111.84
104.87
97.31
88.34
73.02
47.29
13.31
-19.35
-38.61
-36.01
-12.96
20.12
48.93
63.72
63.73
56.63
52.84
58.40
71.96
85.99
92.27
87.18
73.45
57.89
46.40
40.42
36.00
26.48
5.78
-28.45
-73.75
-123.60
-168.33
-198.12
-205.74
-190.65
-160.17
-127.77
-106.23
-100.62
-104.92
-104.50
-85.19
-41.87
17.12
74.29
111.29
118.20
96.89
58.20
16.16
-18.33
-39.18
-45.02
-37.41
-20.24
0.55
18.09
26.30
22.21
6.94
-14.28
-34.29
-45.81
-43.45
-25.60
4.50
38.46
65.65
76.81
68.97
47.06
21.73
3.79
-1.46
3.85
12.78
18.62
18.79
14.97
9.75
3.12
-8.02
-27.53
-55.28
-84.30
-102.27
-97.63
-66.17
-14.58
41.23
82.58
95.98
78.88
39.76
-5.69
-41.21
-55.79
-46.74
-19.36
16.06
48.11
67.29
68.21
50.26
17.92
-21.03
-56.93
-80.77
-86.85
-73.76
-44.97
-7.72
29.15
58.16
75.24
80.82
79.09
76.08
76.60
82.34
91.90
101.18
105.41
99.94
81.88
50.91
10.63
-31.33
-64.97
-80.31
-71.68
-40.25
5.63
52.66
87.78
101.71
91.92
61.33
16.49
-34.95
-85.61
-128.47
-157.59
-168.99
-161.63
-137.05
-98.96
-51.45
1.10
53.63
99.56
131.23
142.27
130.35
99.57
58.91
19.54
-9.64
-23.90
-22.54
-7.72
17.11
46.32
72.21
85.33
77.65
46.74
-2.03
-56.37
-102.48
-130.22
-136.86
-125.89
-104.31
-78.79
-53.95
-33.30
-19.87
-17.11
-27.24
-50.01
-81.36
-114.35
-140.46
-152.02
-144.14
-115.54
-70.23
-16.55
34.35
72.92
94.87
103.04
105.75
111.28
123.17
137.34
145.08
137.73
111.60
69.97
21.23
-24.57
-59.13
-76.85
-75.88
-57.87
-28.58
3.25
28.63
41.99
43.50
37.67
30.14
23.77
18.56
13.58
9.66
10.49
19.41
35.28
51.09
57.63
48.74
26.08
-1.68
-24.28
-35.63
-37.36
-35.96
-37.21
-41.71
-45.22
-42.74
-32.90
-19.43
-8.21
-3.58
-6.04
-12.84
-20.25
-25.82
-28.41
-27.79
-24.48
-19.21
-13.56
-9.57
-8.68
-11.12
-15.50
-19.08
-19.37
-15.47
-7.85
1.50
10.44
16.69
17.81
12.30
0.78
-12.81
-21.91
-20.33
-6.34
15.44
36.19
47.08
44.23
29.88
9.60
-11.17
-30.13
-47.32
-62.30
-71.60
-69.90
-52.84
-21.61
16.10
49.69
70.38
75.05
66.58
51.08
33.53
17.00
2.98
-6.71
-9.97
-5.91
3.66
14.16
21.03
22.07
19.03
15.33
12.92
10.41
3.82
-9.07
-25.80
-39.58
-43.68
-36.93
-25.29
-18.61
-23.68
-38.64
-53.32
-56.13
-41.36
-13.56
15.69
34.78
38.59
30.79
19.30
10.52
4.87
-1.74
-14.22
-33.49
-55.17
-72.28
-78.66
-72.80
-57.93
-40.65
-27.41
-22.16
-24.82
-31.41
-36.61
-35.66
-27.09
-12.30
5.72
24.35
42.74
61.52
81.29
100.57
116.21
123.66
119.52
103.16
76.51
44.15
12.37
-11.17
-18.90
-4.88
31.72
84.81
142.19
189.49
215.79
216.99
196.82
163.61
126.19
89.99
56.06
23.13
-9.52
-39.23
-61.11
-70.44
-66.41
-53.58
-39.52
-30.97
-30.02
-33.85
-37.15
-37.14
-36.75
-44.07
-67.67
-110.32
-166.00
-221.38
-262.12
-278.49
-268.42
-235.67
-186.71
-128.20
-66.33
-7.97
39.95
71.93
86.77
88.59
85.59
86.17
94.72
109.96
125.64
134.85
133.35
120.97
100.20
73.87
44.37
13.48
-16.42
-42.61
-63.10
-77.72
-87.74
-93.86
-94.72
-86.78
-67.28
-36.96
-2.62
25.45
37.74
29.76
4.34
-30.65
-66.25
-96.75
-120.08
-136.24
-144.07
-139.58
-117.42
-74.23
-12.98
56.12
117.16
154.07
156.55
124.29
68.08
6.16
-41.65
-60.75
-46.54
-5.27
48.29
95.86
121.48
116.35
81.36
27.52
-28.25
-68.43
-81.16
-64.49
-26.37
18.21
53.09
66.20
53.80
21.15
-19.64
-53.39
-66.79
-52.28
-10.94
48.10
109.71
157.13
176.77
162.49
118.09
55.48
-9.09
-60.31
-88.04
-89.02
-66.26
-27.65
16.70
56.65
83.89
94.17
88.03
70.50
49.20
30.80
18.20
9.05
-2.21
-20.85
-47.62
-77.21
-100.05
-106.72
-93.11
-61.95
-22.52
13.53
36.30
40.48
26.42
-1.49
-36.38
-71.65
-101.47
-121.57
-129.02
-122.46
-102.11
-70.32
-32.39
4.11
30.38
39.51
29.38
4.55
-24.14
-43.31
-42.10
-16.77
28.02
80.85
128.22
159.41
170.21
163.99
148.51
131.88
117.82
105.27
90.78
72.53
53.14
38.16
31.95
32.42
30.78
14.79
-23.25
-80.99
-144.79
-194.56
-213.02
-193.14
-141.65
-75.34
-14.54
24.79
35.33
19.24
-14.41
-53.85
-88.16
-109.64
-113.53
-97.91
-62.77
-10.78
52.02
116.05
168.86
199.15
199.98
172.00
122.75
64.55
10.14
-31.46
-56.71
-67.99
-70.64
-70.55
-71.92
-76.48
-83.94
-93.28
-103.10
-111.19
-115.22
-112.73
-103.02
-88.04
-72.52
-62.28
-61.26
-69.68
-82.67
-92.46
-91.17
-74.32
-42.77
-2.06
39.91
76.80
105.34
126.46
142.77
157.08
170.57
181.82
188.01
185.86
173.73
152.42
124.96
95.09
66.00
38.43
10.46
-20.65
-56.58
-95.34
-130.57
-152.45
-151.94
-125.95
-79.65
-25.79
20.76
48.69
54.30
41.94
21.06
1.56
-9.78
-11.17
-5.80
1.16
4.54
1.01
-10.50
-29.89
-56.13
-87.26
-118.89
-143.99
-153.99
-142.38
-108.60
-60.23
-10.79
26.28
43.97
45.10
39.22
36.89
44.25
60.13
79.07
95.54
106.95
113.47
116.20
114.11
104.28
83.85
52.77
15.50
-20.62
-48.36
-63.91
-67.73
-63.29
-54.15
-42.25
-28.94
-15.62
-5.42
-1.92
-6.53
-15.91
-22.45
-17.12
5.85
44.94
92.28
136.29
166.36
176.65
165.98
137.07
95.15
47.55
2.66
-30.86
-47.59
-47.48
-36.39
-24.37
-21.03
-31.98
-56.17
-87.65
-118.62
-143.83
-161.41
-171.62
-174.63
-167.83
-147.06
-109.64
-58.07
-1.15
48.14
77.17
79.09
55.42
16.29
-23.25
-47.87
-46.63
-16.04
39.24
107.71
174.54
225.70
251.83
249.42
220.96
173.39
116.19
60.41
15.76
-11.17
-19.58
-14.94
-7.27
-5.99
-15.67
-34.51
-55.86
-72.94
-82.00
-83.81
-81.91
-79.32
-76.39
-70.75
-59.25
-40.19
-14.83
13.13
38.35
55.49
60.22
50.45
27.31
-4.83
-39.19
-69.51
-92.41
-108.41
-120.73
-131.77
-140.83
-142.83
-130.59
-98.36
-46.07
19.10
84.52
136.17
163.59
162.56
136.15
92.32
40.64
-10.93
-57.59
-97.44
-129.62
-151.19
-156.81
-141.11
-102.70
-47.29
12.49
61.39
88.47
91.22
76.26
55.33
39.78
36.06
44.39
60.68
78.93
93.60
99.58
92.88
71.48
36.51
-6.20
-46.97
-74.80
-81.57
-65.26
-31.80
6.27
34.03
39.74
20.23
-17.90
-60.24
-91.45
-102.14
-93.04
-73.09
-53.36
-40.75
-34.44
-28.67
-17.91
-2.37
11.16
13.28
-1.97
-32.72
-69.73
-100.45
-115.44
-111.19
-90.21
-58.16
-20.61
18.01
54.92
87.39
112.95
129.16
134.99
131.42
121.26
108.61
97.16
89.43
85.71
85.24
86.61
88.28
88.56
85.13
75.61
58.36
34.99
10.51
-7.62
-12.55
-2.09
19.57
43.01
58.50
59.81
47.28
26.10
3.06
-17.00
-33.48
-48.26
-63.85
-80.67
-96.97
-108.73
-111.55
-101.52
-77.00
-40.59
1.11
38.15
61.41
66.17
54.44
33.71
12.86
-2.54
-13.12
-23.34
-37.56
-55.11
-69.13
-69.97
-51.13
-14.97
27.06
58.59
66.44
46.80
7.54
-35.20
-64.36
-69.50
-51.61
-22.13
2.74
10.65
-1.73
-26.75
-50.08
-58.02
-43.67
-10.54
29.88
63.83
81.80
82.44
71.51
57.16
44.00
30.57
10.55
-21.73
-66.62
-116.87
-159.14
-180.00
-172.19
-138.19
-88.92
-39.02
-0.42
21.47
27.95
24.23
15.11
2.92
-12.55
-30.95
-49.48
-61.90
-61.00
-42.25
-6.90
37.29
79.29
109.50
123.95
125.12
119.33
112.44
106.18
97.95
82.96
58.66
27.30
-3.87
-25.14
-28.57
-11.49
22.30
64.17
103.55
131.96
145.56
145.46
136.48
123.45
108.50
88.99
59.88
17.13
-37.94
-97.36
-149.00
-181.52
-189.12
-172.95
-140.12
-99.58
-59.52
-26.31
-4.79
1.13
-9.83
-35.61
-69.88
-104.05
-129.87
-142.41
-140.75
-127.11
-105.28
-78.36
-49.15
-20.03
6.49
27.66
41.42
46.87
44.99
38.06
29.39
21.62
15.70
9.91
0.84
-13.78
-32.86
-50.52
-59.63
-55.87
-41.53
-24.45
-13.23
-11.43
-14.20
-11.83
3.88
32.22
62.58
79.06
70.43
37.37
-6.73
-41.78
-51.37
-30.06
14.68
67.15
110.96
135.66
139.63
127.76
107.35
84.08
61.35
40.60
23.47
12.28
8.58
12.00
19.26
25.89
28.07
25.19
20.11
17.54
21.62
32.75
47.74
59.82
62.06
50.01
24.01
-10.25
-43.07
-64.22
-67.31
-52.45
-26.50
0.92
22.33
36.04
46.99
62.25
85.36
111.87
131.22
131.85
109.02
67.99
21.46
-17.09
-41.29
-54.05
-64.57
-81.19
-105.37
-130.46
-146.16
-146.16
-132.24
-114.28
-103.83
-106.79
-119.12
-128.67
-122.45
-94.22
-48.45
