1638181543.00
64.000000
-0.00
-0.00
-0.00
-0.00
-0.00
-0.00
-0.00
-0.00
-0.00
-0.00
0.00
0.01
0.01
-0.00
-0.03
-0.05
-0.05
0.00
0.13
0.36
0.66
1.01
1.37
1.72
2.06
2.40
2.79
3.24
3.81
4.44
5.09
5.72
6.30
6.86
7.45
8.15
9.02
10.13
11.39
12.67
13.83
14.82
15.70
16.66
17.94
19.70
22.17
25.12
28.25
31.25
33.94
36.44
39.14
42.50
46.88
52.62
59.31
66.35
73.12
79.29
85.02
90.94
97.89
106.45
117.09
129.11
141.53
153.33
163.95
173.64
183.36
194.73
206.62
221.12
238.48
258.33
279.16
298.04
310.98
313.98
304.24
281.18
246.94
204.69
157.90
109.19
59.97
11.02
-36.78
-82.28
-124.11
-161.38
-194.69
-225.88
-256.98
-289.51
-323.51
-357.20
-387.60
-411.24
-425.20
-427.92
-419.64
-401.81
-377.16
-348.96
-319.94
-291.88
-264.87
-238.09
-210.61
-182.54
-155.43
-131.60
-113.22
-100.70
-92.48
-85.47
-76.58
-64.04
-48.02
-30.93
-15.72
-5.27
-0.59
-0.89
-3.61
-5.43
-3.76
2.64
12.60
23.64
32.84
38.61
40.97
41.44
41.66
42.10
42.26
40.92
38.02
34.40
31.95
31.92
34.21
37.74
40.82
42.92
44.50
46.72
49.64
51.97
51.58
46.27
35.89
21.79
6.72
-6.65
-16.48
-21.88
-22.73
-19.07
-11.86
-2.49
6.75
13.85
17.25
16.56
12.46
6.15
-0.83
-7.42
-12.38
-14.92
-14.12
-9.78
-2.68
5.47
12.05
15.05
13.42
8.28
1.78
-3.11
-4.10
-0.54
6.87
15.85
24.16
29.98
32.99
33.52
32.49
30.86
28.98
27.20
25.43
23.72
21.62
18.89
15.48
11.73
8.87
8.06
10.52
15.73
21.93
26.07
25.37
18.64
6.80
-7.41
-20.93
-31.01
-36.97
-39.36
-39.84
-39.80
-39.76
-39.30
-36.95
-31.92
-24.01
-14.65
-5.81
0.89
4.80
6.31
5.92
4.25
1.18
-3.06
-7.57
-10.92
-11.57
-8.99
-3.78
2.25
7.68
11.48
13.73
15.02
15.85
16.46
16.60
16.36
15.48
13.71
10.73
7.01
3.64
1.95
2.94
5.74
8.51
9.11
7.24
4.30
2.82
4.39
7.93
10.95
10.65
6.66
0.88
-3.44
-4.54
-3.16
-1.69
-2.58
-5.59
-8.65
-8.75
-4.61
2.47
9.23
12.44
11.13
6.52
1.49
-1.67
-1.89
-0.04
2.21
3.74
4.27
4.90
6.38
9.17
11.93
12.69
9.95
3.60
-4.21
-10.73
-13.30
-11.84
-7.89
-4.07
-2.17
-1.97
-2.06
-0.71
1.94
4.69
5.52
3.69
0.24
-2.35
-1.63
3.30
11.69
21.01
28.67
32.34
31.12
25.45
16.93
8.19
1.58
-0.95
0.51
4.40
8.26
10.02
9.32
6.90
4.27
1.98
-0.00
-2.28
-4.69
-6.25
-5.52
-1.79
3.78
8.76
10.41
7.48
0.98
-5.97
-9.98
-9.26
-4.45
1.50
5.15
4.19
-0.70
-6.65
-10.09
-8.72
-3.43
2.93
6.80
6.88
4.63
3.09
4.77
9.42
14.15
15.13
10.40
0.75
-10.36
-19.00
-22.59
-20.83
-15.58
-9.35
-4.36
-1.46
-0.22
0.51
1.94
4.32
7.02
9.05
10.01
10.14
10.51
11.64
12.98
13.21
10.90
6.27
0.58
-4.07
-6.75
-8.11
-9.75
-12.79
-16.80
-20.22
-21.19
-19.27
-14.96
-9.48
-3.46
3.16
10.24
17.20
22.56
25.34
25.40
23.82
21.92
20.25
18.59
16.34
14.07
12.83
14.20
18.36
23.49
26.23
23.32
13.86
-0.61
-16.06
-28.38
-34.85
-35.31
-31.70
-26.97
-23.75
-23.11
-24.83
-27.05
-27.98
-26.07
-21.03
-13.75
-5.79
0.94
5.59
7.68
7.89
6.78
4.65
1.47
-3.02
-8.21
-12.92
-14.97
-13.03
-6.91
1.40
8.94
13.25
13.59
11.58
9.74
10.58
14.55
20.48
25.92
28.63
27.64
23.11
16.62
9.58
3.64
-0.43
-2.42
-2.87
-2.84
-3.17
-4.56
-6.48
-8.11
-8.21
-6.17
-2.01
3.58
8.90
12.54
12.99
10.24
4.91
-1.36
-7.16
-11.58
-14.23
-15.54
-15.32
-13.50
-9.22
-2.35
6.22
14.75
20.98
23.73
22.67
19.08
14.32
9.45
4.41
-1.34
-7.99
-15.15
-21.06
-23.83
-21.99
-16.34
-9.40
-4.80
-5.35
-11.13
-19.73
-26.65
-28.55
-24.40
-16.72
-9.60
-6.59
-8.64
-13.16
-16.46
-15.03
-8.22
1.81
11.23
16.57
16.61
12.35
6.86
3.16
3.08
6.57
12.11
17.91
22.41
24.79
24.42
21.24
15.35
7.79
0.10
-5.87
-8.73
-8.39
-5.36
-1.04
3.59
7.83
11.44
14.06
15.16
14.65
12.44
9.33
6.20
3.98
3.15
3.79
5.65
8.07
10.18
10.60
8.48
3.57
-3.29
-10.68
-17.19
-21.75
-24.18
-24.37
-22.59
-19.01
-14.19
-8.75
-3.57
0.44
2.93
3.59
2.63
0.38
-2.42
-4.88
-5.94
-4.71
-1.64
1.95
3.65
1.63
-4.13
-11.12
-15.48
-13.83
-5.12
8.11
21.45
29.88
30.42
23.30
11.86
0.74
-6.64
-9.16
-8.73
-8.11
-9.53
-12.57
-14.31
-11.06
-0.85
14.45
29.83
38.67
36.84
24.45
6.08
-11.48
-22.89
-25.88
-22.24
-15.46
-9.26
-5.45
-3.99
-3.51
-2.37
-0.12
2.59
3.93
2.45
-2.22
-8.23
-12.34
-11.61
-5.12
4.81
14.35
19.57
19.24
15.01
10.55
8.90
10.55
13.80
15.22
12.72
6.55
-0.58
-5.30
-5.49
-1.46
3.68
6.68
5.21
0.09
-6.00
-10.09
-10.93
-9.77
-8.90
-10.29
-13.19
-15.13
-13.13
-6.48
2.64
10.20
12.33
8.27
-0.10
-8.78
-14.51
-15.53
-12.11
-5.84
1.70
8.66
13.87
16.45
16.41
14.24
10.80
6.72
1.80
-4.13
-11.28
-18.39
-23.61
-24.81
-21.18
-14.13
-6.49
-1.35
0.29
-0.51
-0.79
1.68
7.55
15.09
20.98
22.95
20.46
15.69
11.18
8.83
8.07
6.82
3.29
-2.78
-8.75
-11.25
-7.70
1.47
13.28
23.38
28.21
26.96
21.01
13.58
7.21
3.07
0.54
-1.72
-5.03
-9.81
-14.99
-19.19
-21.00
-20.69
-19.41
-18.88
-20.04
-22.05
-23.11
-20.82
-14.24
-4.28
5.86
12.51
12.85
6.11
-5.68
-18.81
-29.00
-33.82
-32.70
-27.27
-19.72
-11.55
-3.25
5.67
15.06
24.11
30.77
33.55
31.72
26.02
18.16
10.05
3.74
0.20
0.30
3.73
9.65
16.68
22.94
27.02
27.86
25.29
19.13
9.86
-1.87
-14.49
-25.87
-33.86
-36.76
-34.75
-28.88
-21.39
-14.03
-8.35
-5.29
-4.45
-4.58
-3.30
0.83
7.92
15.58
20.35
19.13
11.19
-1.13
-14.02
-23.44
-27.64
-26.76
-22.59
-16.86
-10.33
-3.59
2.85
7.55
9.50
8.48
6.18
5.03
6.84
11.91
18.06
22.58
23.19
19.68
13.77
7.80
3.41
0.57
-1.39
-3.36
-4.66
-4.05
-0.30
6.02
12.62
16.69
16.17
11.40
4.27
-2.49
-7.54
-10.94
-13.49
-15.66
-16.48
-14.49
-8.29
1.66
13.10
22.35
25.95
22.49
12.53
-1.22
-15.62
-27.69
-35.62
-38.52
-36.47
-30.16
-20.39
-8.80
3.00
12.94
19.41
21.19
18.45
12.73
5.94
0.11
-3.86
-5.68
-5.72
-4.18
-1.23
2.97
7.87
11.71
12.87
10.21
4.65
-1.49
-5.21
-4.56
0.25
7.46
14.01
18.01
18.62
16.27
11.85
6.14
-0.01
-5.88
-10.14
-11.91
-10.81
-8.00
-5.09
-3.32
-2.96
-2.84
-1.58
1.88
6.84
11.39
13.02
10.27
3.85
-3.86
-9.45
-10.75
-7.48
-2.08
2.36
3.39
0.42
-4.76
-9.78
-12.58
-12.93
-11.67
-10.10
-8.42
-5.74
-1.20
5.60
13.33
19.85
22.58
20.41
13.68
4.63
-3.91
-9.79
-11.70
-10.21
-6.69
-2.90
0.23
2.50
4.26
5.96
7.35
8.18
7.59
5.39
1.90
-2.05
-5.55
-7.85
-8.61
-8.10
-6.46
-4.22
-1.60
1.27
4.23
7.12
9.51
10.77
9.99
6.83
1.41
-4.94
-10.26
-12.75
-11.19
-6.23
0.38
5.64
7.52
5.10
-0.35
-6.02
-9.40
-8.94
-5.80
-2.47
-2.05
-5.70
-12.43
-19.06
-22.17
-19.90
-12.84
-3.86
3.88
8.03
8.38
5.84
2.06
-1.51
-3.89
-3.90
-0.27
7.69
18.92
30.41
37.90
37.53
28.39
12.86
-3.75
-16.41
-22.05
-20.95
-15.90
-9.89
-5.04
-1.57
0.85
2.88
4.27
4.39
2.40
-1.68
-6.80
-11.68
-14.76
-15.16
-12.55
-7.55
-1.12
5.79
11.97
16.70
19.31
19.83
18.26
15.43
12.41
10.06
8.73
7.72
6.15
3.02
-1.34
-5.73
-8.68
-9.22
-7.88
-6.28
-6.52
-9.35
-13.98
-18.17
-20.16
-19.19
-15.80
-11.49
-7.64
-5.20
-4.22
-4.44
-5.01
-4.83
-2.88
1.64
7.96
14.39
18.26
18.03
13.83
8.08
3.92
3.34
6.51
11.29
15.31
16.89
15.85
12.73
8.15
2.44
-4.27
-10.93
-16.17
-18.20
-16.74
-13.05
-9.67
-8.54
-9.89
-12.31
-13.06
-10.27
-3.43
5.89
15.31
22.62
26.11
25.31
20.35
12.50
3.36
-4.71
-9.64
-10.26
-6.89
-1.56
3.38
5.77
5.06
1.73
-3.10
-7.95
-11.67
-12.95
-11.20
-6.00
1.60
9.77
15.97
18.08
15.47
8.85
0.68
-6.29
-9.42
-7.85
-2.46
4.59
10.27
12.61
10.78
5.87
-0.17
-5.47
-9.28
-11.68
-13.07
-13.26
-11.27
-6.78
-0.09
6.85
11.56
12.03
8.03
1.18
-6.31
-12.01
-15.22
-16.16
-15.96
-15.57
-15.35
-14.86
-13.23
-10.13
-5.42
0.02
5.19
8.98
10.58
9.96
7.62
4.55
1.49
-0.91
-2.70
-4.03
-5.00
-5.28
-4.06
-0.85
4.34
9.96
14.26
15.38
12.97
8.20
2.78
-1.43
-4.12
-5.59
-7.07
-8.90
-11.10
-12.87
-13.12
-11.56
-7.90
-2.65
3.81
10.36
15.82
18.55
17.25
11.66
2.76
-6.50
-12.87
-13.63
-8.37
0.99
10.48
16.24
16.63
12.34
6.70
2.89
2.56
4.67
6.54
5.65
0.97
-5.92
-12.47
-15.87
-14.77
-9.38
-1.18
7.35
13.70
15.68
12.62
5.11
-4.57
-13.40
-18.64
-18.46
-13.11
-4.20
5.44
13.44
18.01
19.11
17.88
15.91
14.54
13.80
12.99
10.68
6.39
0.58
-5.53
-10.62
-14.52
-17.55
-20.72
-24.19
-27.41
-28.95
-27.32
-21.74
-12.33
-0.71
10.74
18.96
21.81
18.80
11.49
3.40
-2.02
-2.61
0.89
5.80
8.51
7.08
2.07
-3.64
-6.65
-4.93
1.34
9.45
16.31
19.32
17.33
10.89
1.34
-8.89
-17.74
-23.04
-24.16
-21.28
-15.90
-10.07
-5.34
-2.55
-0.89
0.60
3.24
7.25
12.18
16.80
19.63
19.92
17.27
12.37
6.30
0.54
-3.85
-6.31
-6.99
-6.39
-4.60
-2.01
1.51
5.22
8.41
10.18
10.24
8.87
6.58
4.00
1.15
-1.60
-3.99
-5.19
-4.79
-3.10
-1.06
-0.15
-1.04
-3.90
-7.55
-11.13
-13.86
-15.51
-15.94
-14.83
-11.94
-7.14
-1.37
4.13
7.81
9.00
7.91
5.44
2.88
0.76
-0.35
-0.95
-1.34
-2.59
-5.43
-10.23
-16.50
-22.32
-25.58
-24.15
-17.74
-7.70
3.27
11.99
16.32
15.44
10.66
4.09
-1.36
-3.68
-1.92
3.66
11.42
19.44
25.22
27.13
24.18
17.05
7.31
-2.75
-10.67
-15.42
-16.79
-15.96
-13.88
-11.41
-8.25
-4.01
1.17
6.69
11.37
14.82
17.32
19.81
22.83
25.49
25.88
21.84
12.63
-0.34
-13.51
-23.06
-26.41
-23.26
-15.98
-7.58
-1.12
2.08
1.92
-0.66
-4.64
-9.13
-12.89
-14.63
-12.90
-7.44
0.45
7.37
10.15
7.29
0.57
-5.82
-8.02
-4.49
2.50
8.90
11.20
8.88
4.48
1.88
3.29
7.62
11.71
11.96
7.21
-0.71
-7.94
-11.03
-8.71
-2.11
5.89
12.71
16.41
16.54
13.33
7.59
0.44
-6.85
-12.44
-14.63
-12.27
-5.89
2.75
11.29
17.51
20.47
20.09
17.35
13.10
8.26
3.09
-1.93
-6.05
-8.65
-9.35
-8.52
-7.56
-8.46
-12.21
-18.10
-23.38
-24.51
-19.61
-9.41
2.01
9.80
10.34
3.68
-6.67
-16.15
-21.50
-22.09
-19.48
-16.06
-13.05
-10.46
-7.51
-3.55
1.21
6.15
10.12
12.21
11.50
7.95
2.89
-1.33
-2.14
1.51
8.36
14.76
16.91
12.85
4.33
-4.47
-9.58
-9.14
-4.79
0.35
3.75
5.32
7.04
10.79
16.63
22.07
23.84
19.44
9.40
-3.08
-13.35
-17.82
-15.50
-8.40
-0.70
4.08
3.92
-0.47
-6.38
-10.87
-11.93
-9.70
-5.40
-0.95
2.66
4.95
6.46
7.77
8.92
9.69
9.83
9.48
8.82
8.21
7.38
5.73
3.19
0.19
-1.73
-1.42
1.58
5.70
8.48
7.27
1.25
-7.84
-16.57
-21.02
-19.49
-12.78
-4.13
2.69
5.38
3.62
-0.83
-5.71
-9.14
-10.92
-11.61
-12.29
-13.41
-14.73
-15.29
-14.16
-11.06
-6.29
-0.84
4.40
8.53
11.00
11.54
9.78
5.99
0.47
-5.49
-10.37
-12.53
-11.15
-6.54
-0.01
5.96
9.39
9.01
5.19
-0.22
-4.72
-6.38
-4.85
-1.37
1.14
0.39
-4.52
-12.15
-19.49
-23.18
-21.22
-13.72
-2.56
9.01
18.44
23.95
25.90
25.85
25.45
25.94
26.77
26.75
24.02
18.06
9.56
0.56
-6.73
-11.15
-12.50
-11.88
-10.09
-7.93
-5.29
-2.26
0.78
3.29
4.28
3.62
1.53
-1.12
-3.62
-5.27
-5.70
-5.10
-3.58
-1.37
1.67
5.15
8.84
12.04
13.90
13.83
11.39
7.31
2.71
-0.54
-1.14
1.67
6.94
12.22
14.77
12.20
4.58
-6.19
-16.56
-23.30
-24.90
-21.88
-16.59
-11.35
-7.53
-4.86
-2.28
1.06
4.99
8.36
9.55
7.44
2.41
-4.26
-10.04
-12.91
-11.77
-7.09
-1.05
3.77
5.19
2.50
-3.74
-11.51
-18.70
-23.29
-23.78
-19.84
-11.97
-2.08
7.02
12.42
12.23
6.56
-2.55
-11.91
-18.59
-20.66
-17.91
-11.09
-1.57
9.13
19.51
27.91
33.00
33.72
30.30
23.89
16.47
10.09
5.99
4.29
4.23
4.68
4.60
3.81
2.36
0.92
-0.22
-1.39
-3.02
-5.60
-8.42
-10.41
-10.33
-8.11
-4.92
-2.55
-2.56
-4.62
-7.27
-8.40
-6.82
-3.06
1.00
2.96
1.39
-3.81
-10.81
-16.85
-18.80
-14.87
-5.32
7.04
17.45
21.64
17.60
7.29
-4.73
-12.94
-14.24
-9.16
-1.20
4.63
5.23
0.07
-8.07
-15.40
-18.39
-15.09
-5.88
7.51
21.94
34.30
41.52
41.77
35.01
23.21
9.76
-1.89
-9.06
-11.17
-8.96
-4.23
1.49
7.40
13.26
19.05
23.77
26.04
24.13
17.50
7.09
-4.53
-13.74
-17.85
-15.79
-8.90
0.11
7.52
10.53
8.28
1.52
-7.20
-15.07
-19.82
-20.79
-18.77
-15.98
-14.38
-14.83
-16.64
-17.80
-16.77
-12.99
-7.96
-3.97
-3.09
-5.81
-10.33
-14.18
-14.98
-12.20
-6.84
-1.17
2.71
3.84
2.59
0.46
-0.85
0.14
3.35
7.59
10.92
11.36
8.24
2.46
-3.74
-8.30
-9.62
-7.86
-4.20
-0.34
2.30
3.50
3.63
3.71
4.21
5.20
5.92
5.50
3.65
0.66
-1.93
-2.66
-0.47
3.81
8.36
10.74
9.73
6.06
1.70
-0.96
-1.23
0.25
1.82
2.48
2.36
2.31
3.12
4.25
4.59
2.69
-1.35
-6.04
-9.18
-8.95
-5.22
0.54
5.71
8.35
7.27
3.17
-1.98
-5.96
-6.99
-4.78
-0.55
3.29
5.00
3.72
0.44
-3.05
-5.24
-5.37
-4.16
-2.64
-1.95
-2.17
-3.07
-3.95
-4.43
-4.50
-4.14
-3.72
-3.19
-2.72
-2.56
-2.99
-4.19
-5.91
-7.71
-8.55
-7.57
-4.17
1.03
6.71
10.98
12.45
10.71
6.19
0.72
-3.85
-5.66
-4.15
0.26
6.11
11.10
13.41
11.82
7.01
0.68
-4.61
-7.16
-6.37
-2.86
2.15
7.79
13.22
17.73
19.81
17.98
11.69
2.24
-6.96
-12.06
-10.29
-2.03
9.50
19.36
23.72
21.34
13.60
3.90
-4.80
-10.52
-13.24
-13.82
-13.20
-11.99
-10.18
-7.89
-5.09
-2.05
1.68
6.51
12.54
18.67
22.91
23.17
18.16
9.26
-0.56
-7.27
-8.16
-3.20
5.33
13.59
18.36
17.84
12.44
3.60
-6.49
-15.98
-23.69
-28.38
-29.50
-26.78
-21.09
-14.26
-8.93
-7.26
-9.66
-14.73
-19.33
-20.86
-17.94
-11.31
-3.08
4.02
7.78
7.05
1.42
-8.04
-19.30
-28.76
-32.66
-28.44
-16.39
-0.12
15.14
24.37
25.65
20.13
11.41
3.39
-1.47
-2.61
-1.07
1.68
4.32
6.55
8.60
10.99
13.90
16.59
17.48
14.41
6.45
-5.78
-19.12
-29.35
-32.73
-27.69
-15.67
-0.15
14.64
26.01
33.31
37.63
40.04
40.65
38.10
30.67
18.27
2.87
-11.53
-21.17
-24.16
-21.52
-16.37
-12.22
-11.19
-12.87
-15.29
-16.37
-15.67
-14.42
-14.53
-16.95
-20.54
-23.17
-23.00
-20.16
-16.31
-13.54
-12.65
-12.20
-9.65
-3.17
6.53
16.51
22.98
24.48
22.98
22.68
27.15
35.87
44.66
47.47
40.59
24.69
4.91
-12.02
-21.23
-21.52
-15.49
-7.19
0.15
5.83
10.53
14.82
17.98
18.27
14.57
7.05
-2.23
-10.88
-17.00
-20.02
-20.22
-17.94
-13.93
-8.72
-3.72
-0.48
0.19
-1.18
-2.06
0.32
7.85
19.43
31.63
39.83
40.87
34.31
22.52
9.38
-1.63
-8.45
-11.23
-11.09
-9.57
-7.95
-6.79
-6.57
-7.74
-11.07
-16.93
-25.14
-33.71
-39.83
-40.50
-33.73
-20.27
-2.98
13.41
24.30
26.73
20.57
8.41
-5.53
-16.60
-21.70
-19.57
-11.45
0.19
11.86
20.33
23.27
19.77
11.12
-0.31
-11.35
-19.44
-23.47
-23.31
-19.62
-13.10
-4.70
4.32
11.60
15.08
13.60
8.33
2.38
-0.95
0.05
3.97
7.68
7.95
3.95
-2.69
-8.95
-12.26
-11.77
-8.00
-2.63
3.23
8.46
12.19
13.51
11.82
7.86
3.11
-0.37
-1.71
-1.27
-0.26
1.07
3.73
9.12
17.58
26.82
33.18
33.32
27.12
17.23
7.73
1.72
-0.82
-1.82
-3.90
-7.85
-12.59
-16.34
-18.46
-19.99
-22.54
-26.98
-31.43
-32.69
-27.72
-16.52
-2.52
8.85
12.71
7.83
-3.55
-16.19
-25.33
-28.02
-24.20
-15.95
-5.61
4.96
14.92
23.11
28.55
29.89
26.95
21.02
14.53
10.16
8.81
9.88
11.54
12.47
12.17
11.33
10.92
10.96
11.03
9.88
7.14
2.85
-1.96
-6.11
-8.95
-10.14
-10.19
-9.43
-8.55
-8.03
-8.17
-8.78
-9.26
-9.19
-8.38
-7.88
-8.61
-11.32
-15.37
-19.37
-21.74
-21.37
-18.49
-13.91
-8.97
-4.31
-0.88
0.61
-0.32
-3.75
-8.15
-11.48
-11.33
-7.31
-0.86
5.09
7.87
6.65
2.49
-1.98
-4.39
-3.26
1.42
8.92
17.53
24.93
29.11
28.38
23.14
15.26
7.96
3.56
2.53
3.29
3.57
2.47
0.64
0.33
2.70
7.11
10.90
11.27
7.57
1.51
-3.33
-4.37
-1.23
4.06
8.88
11.43
11.15
8.77
5.08
0.69
-4.44
-9.81
-14.39
-16.63
-14.82
-8.59
0.94
10.78
17.77
19.23
14.99
7.05
-0.94
-5.57
-5.69
-2.43
0.93
1.31
-2.91
-10.60
-18.87
-25.12
-27.83
-27.51
-25.69
-23.85
-22.05
-19.19
-13.74
-5.12
5.27
14.80
20.45
21.03
17.45
12.64
9.84
10.56
13.74
16.20
15.20
9.67
1.42
-6.30
-10.64
-10.84
-8.48
-5.84
-4.81
-5.58
-7.15
-7.94
-7.19
-5.23
-2.96
-1.33
-0.41
0.25
1.71
4.08
6.86
9.04
9.56
8.21
5.24
1.47
-2.67
-6.61
-10.07
-12.57
-13.33
-11.67
-7.09
-0.20
7.60
14.12
17.88
18.34
16.43
14.12
12.94
13.76
16.03
18.81
20.89
21.63
20.51
17.07
11.23
2.92
-6.77
-16.38
-23.79
-27.06
-25.29
-18.61
-8.75
1.68
9.15
10.75
4.82
-7.61
-22.75
-35.07
-39.47
-33.89
-20.22
-3.89
9.68
16.97
18.27
16.36
14.36
14.28
15.57
16.56
15.02
9.99
1.66
-8.60
-18.48
-25.66
-27.70
-23.62
-13.85
-0.98
11.48
20.19
23.35
21.67
17.31
13.22
11.28
12.15
14.88
17.92
19.64
18.89
15.41
9.26
1.65
-6.15
-12.62
-17.08
-19.79
-21.32
-22.53
-23.08
-22.40
-19.53
-14.60
-8.85
-4.37
-2.98
-4.78
-8.22
-10.48
-9.79
-5.74
-0.21
4.63
7.22
7.34
6.31
5.25
5.41
6.93
9.76
13.20
16.10
17.22
15.06
9.27
0.47
-9.42
-18.61
-25.77
-30.53
-33.64
-35.42
-35.88
-33.92
-28.84
-20.49
-10.01
0.80
9.92
15.80
17.92
16.32
12.52
8.52
7.08
9.81
16.61
25.30
31.73
32.47
25.75
13.34
-0.69
-11.28
-15.09
-12.14
-5.19
1.45
4.82
3.92
0.45
-2.76
-3.55
-1.36
2.26
5.26
5.68
3.50
-0.03
-2.65
-2.72
0.27
5.67
11.38
15.55
16.53
14.26
9.33
3.15
-2.84
-7.63
-10.49
-11.63
-11.34
-10.49
-9.64
-9.47
-10.37
-12.12
-14.32
-16.03
-16.43
-14.61
-10.29
-3.48
4.77
12.64
18.13
19.30
16.09
9.80
3.41
-0.63
-1.01
1.75
5.54
8.43
9.06
7.86
5.85
4.29
3.56
3.30
3.25
3.14
3.42
4.15
5.29
6.18
5.85
3.79
-0.03
-4.75
-9.41
-12.77
-14.58
-14.67
-13.69
-12.29
-11.06
-10.60
-10.81
-11.56
-11.93
-11.28
-9.14
-5.63
-1.66
1.94
4.47
6.29
7.71
9.39
11.21
12.47
12.34
10.16
6.45
2.09
-1.36
-2.74
-1.42
2.62
8.55
15.09
20.30
22.82
21.50
16.89
10.30
3.49
-2.16
-6.40
-9.62
-12.36
-14.26
-14.58
-12.29
-7.12
-0.14
6.59
10.72
10.98
7.27
1.03
-6.11
-12.20
-15.66
-15.48
-11.28
-3.92
4.84
12.44
16.55
15.67
10.34
2.60
-4.78
-9.17
-9.97
-7.90
-4.95
-3.22
-3.74
-6.04
-8.67
-9.80
-7.87
-2.91
3.78
9.84
12.97
11.89
6.92
0.16
-5.79
-8.69
-8.48
-6.78
-5.90
-6.97
-8.99
-9.56
-6.47
0.10
7.66
11.95
10.23
2.57
-7.60
-15.40
-17.45
-13.34
-5.85
1.43
5.90
7.80
8.94
11.38
15.93
21.14
24.56
23.69
18.30
10.17
2.56
-1.42
-0.74
3.69
9.24
13.36
14.03
11.23
6.07
0.12
-4.98
-8.48
-9.95
-9.56
-7.32
-3.94
-0.18
2.76
3.86
3.05
0.62
-2.34
-5.26
-7.34
-8.55
-8.80
-8.41
-7.91
-7.45
-7.51
-7.70
-8.04
-8.21
-8.38
-8.78
-9.37
-9.76
-9.01
-6.72
-2.75
1.68
4.92
5.88
4.78
2.91
1.52
1.58
2.22
2.49
1.46
-0.57
-2.47
-3.06
-1.69
0.90
3.76
5.67
6.45
6.15
5.55
5.31
5.30
5.45
5.18
4.91
5.01
6.19
8.40
10.74
11.57
9.20
3.36
-4.78
-12.31
-16.67
-16.53
-12.99
-8.94
-6.93
-8.38
-11.85
-14.98
-15.12
-11.71
-5.75
0.63
5.34
7.79
8.41
8.48
8.32
7.66
5.53
1.48
-3.48
-7.41
-7.58
-3.02
5.77
15.88
23.75
26.29
22.48
13.76
2.96
-6.19
-11.36
-11.71
-8.37
-3.60
0.47
2.30
1.72
-1.01
-4.62
-8.20
-10.50
-10.83
-9.24
-6.32
-3.39
-1.75
-2.40
-5.07
-9.09
-12.98
-15.73
-17.07
-16.94
-15.78
-13.17
-8.91
-2.35
6.08
14.99
22.20
25.51
23.83
17.26
7.77
-2.04
-9.51
-13.08
-12.51
-8.59
-3.10
2.41
6.53
8.82
9.10
7.94
6.34
5.75
7.40
11.55
17.22
21.75
22.86
19.13
11.10
1.20
-7.83
-13.43
-14.97
-13.00
-9.26
-5.68
-3.64
-3.47
-4.52
-5.78
-6.05
-5.19
-3.85
-3.54
-5.45
-9.17
-12.96
-14.52
-12.72
-7.95
-2.52
1.36
2.80
2.36
1.42
0.83
0.64
-0.25
-2.27
-5.19
-7.65
-8.02
-5.51
-0.45
5.27
9.46
10.30
7.36
1.50
-5.06
-9.61
-10.03
-5.66
2.14
11.02
18.22
22.06
22.45
20.35
16.99
12.87
8.54
4.22
0.43
-1.98
-2.19
-0.05
3.41
6.45
6.88
3.73
-2.59
-9.40
-13.61
-12.92
-7.32
0.76
7.74
10.51
8.39
2.84
-3.15
-7.15
-8.22
-6.88
-4.40
-1.72
0.27
0.99
-0.56
-4.70
-10.80
-17.13
-20.86
-19.90
-13.86
-4.59
5.13
12.39
15.87
15.66
12.94
9.35
5.61
1.96
-2.04
-6.15
-9.84
-11.95
-11.35
-7.72
-1.46
5.81
12.47
16.80
17.95
15.90
11.37
5.69
-0.01
-4.57
-7.66
-9.25
-10.07
-11.23
-13.20
-15.63
-16.84
-14.92
-8.31
2.37
14.67
24.68
28.33
23.69
11.71
-3.00
-14.43
-17.20
-9.82
4.63
19.77
28.62
27.30
16.30
0.31
-14.59
-23.49
-25.05
-21.13
-15.12
-10.07
-6.91
-5.14
-3.52
-1.51
0.32
0.63
-1.49
-5.72
-10.46
-12.93
-11.18
-4.52
5.55
16.04
23.93
27.40
26.49
22.51
17.32
11.98
6.94
2.14
-2.37
-6.15
-8.53
-9.12
-8.16
-6.04
-3.91
-2.65
-3.05
-5.47
-9.29
-13.28
-15.78
-15.53
-11.80
-5.50
1.78
7.84
10.86
10.57
7.51
3.08
-1.53
-5.61
-9.69
-14.10
-18.98
-23.72
-26.74
-26.90
-23.39
-16.62
-7.45
2.69
12.56
20.88
26.16
27.63
24.57
17.84
9.03
0.59
-5.41
-7.78
-6.31
-2.34
2.67
6.84
9.25
9.78
9.18
8.77
9.59
11.99
15.33
18.73
20.56
19.72
15.19
6.92
-3.67
-14.22
-21.71
-24.43
-21.91
-15.69
-7.77
0.22
7.33
13.61
18.51
21.41
21.01
17.08
10.19
2.08
-5.27
-10.49
-12.96
-12.90
-10.52
-6.65
-2.12
1.55
2.91
1.30
-3.12
-9.06
-15.03
-19.42
-21.31
-20.09
-15.94
-10.01
-3.93
0.34
2.08
1.74
1.25
2.04
4.18
6.14
5.72
2.10
-3.82
-9.05
-11.25
-9.65
-5.69
-1.49
1.67
4.28
7.97
13.39
19.77
24.53
25.17
20.90
13.22
4.98
-1.40
-4.80
-6.01
-6.41
-7.15
-8.36
-9.34
-9.25
-7.62
-4.98
-1.78
1.09
3.29
4.70
5.24
4.87
3.07
0.10
-3.37
-5.74
-5.37
-1.60
4.59
10.74
14.18
13.13
8.17
1.40
-4.26
-7.06
-6.58
-3.73
0.18
4.52
8.62
12.12
13.85
12.72
8.31
1.56
-5.32
-9.94
-10.65
-7.82
-2.93
1.69
4.20
4.10
1.82
-1.48
-4.96
-7.80
-9.84
-10.87
-11.15
-11.22
-11.61
-13.10
-15.76
-19.29
-22.42
-24.02
-22.95
-19.46
-14.75
-10.49
-8.06
-7.04
-6.11
-3.43
1.70
8.54
14.96
19.06
20.05
18.26
15.45
12.99
11.62
10.98
10.39
9.28
7.70
6.64
6.83
8.94
12.13
15.09
16.51
16.31
15.94
17.57
22.83
30.70
37.97
39.85
33.20
18.02
-1.87
-20.45
-32.49
-35.55
-31.24
-23.48
-17.14
-15.20
-18.15
-24.51
-31.54
-36.99
-39.16
-37.62
-32.07
-22.91
-10.98
2.00
13.34
20.73
22.49
19.36
13.30
7.26
3.43
2.45
4.04
7.14
10.91
14.40
16.77
16.70
13.62
8.30
2.79
-0.18
0.85
5.27
10.08
12.13
9.65
3.67
-3.06
-7.97
-9.89
-10.09
-10.05
-10.85
-11.95
-12.13
-10.42
-6.91
-2.87
0.91
3.89
6.77
9.97
13.23
15.34
14.72
10.53
3.17
-5.30
-12.67
-16.82
-16.92
-13.56
-8.44
-3.68
-0.72
0.07
-0.16
0.02
1.67
4.54
7.59
9.99
11.19
11.71
11.94
11.67
9.74
5.32
-1.30
-8.29
-12.47
-11.52
-4.93
5.02
15.06
22.13
24.94
23.99
20.48
15.44
8.70
-0.17
-11.46
-24.17
-36.14
-44.79
-48.25
-46.25
-40.01
-31.60
-22.66
-14.03
-5.26
4.53
15.24
25.38
32.14
33.09
27.40
16.94
5.24
-4.04
-8.81
-9.05
-6.12
-2.09
1.58
3.45
2.49
-2.00
-9.54
-18.11
-24.80
-26.84
-23.66
-16.71
-9.19
-3.57
-0.68
0.64
2.45
5.96
11.41
17.98
24.79
31.38
37.40
42.06
43.73
40.75
32.07
18.53
2.36
-13.17
-25.48
-33.33
-36.99
-37.76
-36.40
-33.39
-28.31
-20.80
-11.32
-1.37
6.58
10.61
9.88
5.60
0.15
-3.40
-3.20
0.69
6.52
11.38
13.22
11.51
7.96
5.06
4.70
6.77
9.07
8.93
4.58
-3.09
-11.66
-17.92
-20.22
-18.70
-15.19
-11.59
-8.16
-3.98
2.51
11.43
21.20
28.76
31.31
27.74
19.23
9.10
0.74
-3.18
-2.58
0.93
4.55
6.00
4.70
1.32
-2.21
-4.65
-5.56
-5.85
-6.51
-7.90
-9.18
-8.88
-6.31
-1.76
2.92
6.15
7.32
7.83
9.86
14.62
21.41
27.47
30.20
28.01
22.28
15.99
12.32
12.72
15.90
19.11
19.26
15.27
7.74
-0.96
-8.55
-13.40
-14.93
-13.53
-9.64
-4.51
0.23
2.20
-0.31
-7.91
-19.21
-31.08
-40.17
-43.79
-41.71
-34.99
-25.59
-15.04
-4.83
3.75
9.29
10.26
6.54
-0.91
-9.60
-17.23
-22.37
-25.10
-26.22
-25.67
-22.33
-14.28
-1.34
14.39
28.43
36.01
35.11
27.46
18.15
12.17
12.22
16.66
20.93
20.35
12.64
-0.22
-13.58
-22.21
-23.49
-17.91
-9.13
-1.65
1.27
-1.55
-8.61
-17.21
-23.96
-26.62
-24.10
-16.66
-5.68
7.06
19.66
30.82
39.20
44.21
45.18
41.96
34.97
24.96
13.64
2.53
-6.70
-13.41
-17.50
-19.31
-19.29
-17.55
-14.66
-11.08
-7.96
-6.00
-5.72
-6.95
-8.83
-10.43
-10.54
-8.77
-4.94
-0.16
4.23
6.72
7.02
6.03
5.20
5.94
7.70
8.88
6.93
1.06
-7.39
-15.07
-18.35
-15.89
-8.64
0.12
7.18
10.57
10.52
8.75
6.91
6.46
7.63
10.70
15.34
21.47
28.38
34.67
38.34
37.12
30.26
18.36
4.26
-8.81
-18.01
-22.44
-23.28
-22.57
-22.38
-23.33
-25.36
-27.69
-30.20
-32.90
-35.70
-38.14
-38.83
-36.27
-29.41
-18.79
-6.22
5.33
12.94
14.97
11.38
4.11
-4.14
-10.05
-11.44
-7.28
1.34
11.69
20.52
25.22
25.44
22.96
21.22
23.20
29.99
39.73
48.45
51.84
47.23
34.90
17.33
-1.61
-18.63
-31.67
-39.94
-43.53
-42.59
-37.73
-29.82
-20.86
-13.29
-9.71
-11.32
-17.05
-23.98
-28.02
-26.82
-20.39
-11.64
-4.02
0.16
1.26
1.53
2.88
5.49
7.24
6.18
1.74
-3.73
-6.82
-4.92
2.08
11.05
18.12
20.33
17.82
13.03
9.28
8.77
11.40
15.78
19.55
21.36
20.53
17.71
13.62
8.74
3.34
-2.99
-10.08
-17.51
-23.92
-27.96
-28.61
-25.82
-20.23
-12.49
-3.15
7.82
19.67
31.10
39.70
43.30
41.03
33.67
23.53
12.52
1.83
-8.49
-17.80
-24.57
-26.43
-21.45
-10.43
3.32
14.55
19.36
16.82
9.33
0.89
-5.83
-10.34
-14.43
-19.88
-27.06
-33.86
-37.34
-35.23
-27.68
-17.27
-7.32
-0.68
2.05
2.15
2.21
4.05
7.99
12.90
16.89
18.73
18.39
17.59
18.05
20.81
25.29
29.41
30.76
27.75
20.58
10.95
1.49
-5.49
-8.49
-6.98
-1.63
6.07
13.36
17.74
16.75
10.01
-1.15
-13.54
-23.23
-27.11
-24.02
-15.34
-3.85
6.79
13.85
16.17
14.17
9.53
4.14
-0.35
-3.67
-6.30
-9.45
-13.51
-17.61
-19.63
-17.32
-10.18
-0.13
8.41
11.18
6.35
-3.88
-14.30
-19.95
-18.31
-11.49
-3.82
0.24
-0.65
-4.84
-8.86
-9.91
-8.02
-5.04
-3.50
-4.17
-5.90
-6.29
-3.81
0.96
5.51
6.67
3.01
-4.22
-11.43
-14.82
-12.37
-5.36
2.77
8.52
9.94
7.93
4.69
2.70
2.75
3.98
4.71
3.66
1.00
-2.21
-4.17
-4.10
-2.29
0.05
1.39
1.11
-0.44
-1.73
-1.45
1.10
5.15
9.12
11.17
10.53
7.64
4.06
1.54
0.95
2.38
4.46
5.82
5.67
4.28
3.06
3.30
5.65
9.17
12.17
12.71
10.05
4.89
-1.25
-6.58
-10.35
-12.81
-14.60
-15.75
-15.62
-13.29
-8.52
-2.50
2.83
5.43
4.91
2.02
-1.35
-3.57
-3.80
-1.85
1.46
5.53
9.23
11.55
11.70
9.16
4.33
-1.41
-6.07
-8.23
-7.38
-4.38
-0.55
3.02
5.90
8.21
10.36
12.37
13.78
14.28
13.26
10.67
6.67
1.66
-3.61
-8.57
-12.38
-14.66
-15.15
-14.25
-12.80
-11.56
-10.84
-9.67
-7.00
-1.93
4.84
11.24
14.28
11.84
4.26
-5.89
-14.36
-17.76
-15.01
-7.89
0.35
6.59
9.32
8.96
6.70
4.03
1.44
-0.62
-2.12
-2.81
-2.54
-1.65
-0.65
-0.53
-1.42
-2.76
-3.22
-2.00
0.84
4.10
5.89
5.27
2.17
-1.92
-5.09
-5.87
-4.21
-1.14
1.75
3.15
3.11
2.03
0.97
0.50
0.52
0.62
0.19
-0.85
-2.57
-4.33
-5.72
-6.28
-6.14
-5.69
-5.38
-5.60
-5.82
-5.37
-3.22
0.66
5.31
8.91
9.63
7.14
2.43
-2.20
-4.89
-4.57
-1.74
2.93
8.68
14.96
21.40
26.37
28.06
24.53
15.63
3.16
-9.23
-17.67
-20.26
-17.22
-11.38
-6.05
-3.74
-4.71
-7.64
-10.63
-12.10
-11.93
-10.55
-9.05
-8.06
-7.84
-8.07
-7.96
-7.08
-5.12
-2.70
-0.19
2.04
4.60
8.54
14.55
22.20
29.41
33.47
31.80
24.41
13.24
1.97
-6.15
-9.87
-9.75
-7.70
-5.49
-4.17
-3.74
-3.97
-4.75
-5.94
-7.56
-9.29
-10.71
-11.10
-10.15
-7.56
-3.55
1.51
6.61
10.09
10.52
7.20
1.04
-5.86
-11.09
-13.30
-12.47
-9.46
-5.63
-1.59
2.48
6.33
9.11
9.97
8.55
5.56
2.64
0.80
0.19
-0.31
-1.80
-4.36
-6.44
-6.06
-2.07
4.86
12.14
17.01
17.33
13.11
5.90
-1.89
-8.00
-11.29
-11.42
-9.47
-6.70
-4.51
-3.38
-2.59
-0.94
2.52
7.76
13.51
17.54
18.19
15.06
9.34
3.28
-1.23
-3.38
-3.84
-3.67
-4.06
-4.96
-5.81
-5.74
-4.41
-2.68
-1.71
-2.69
-5.90
-10.54
-15.16
-18.20
-18.61
-15.80
-10.36
-3.14
4.29
10.27
13.66
13.98
11.85
8.27
4.25
0.21
-3.71
-7.59
-10.82
-12.46
-11.68
-8.25
-3.20
2.13
6.16
8.51
9.48
10.26
11.84
13.99
15.60
15.03
11.47
5.47
-0.47
-3.68
-2.38
2.83
8.82
11.86
9.27
1.56
-8.11
-15.45
-17.42
-13.70
-6.23
2.20
9.87
16.25
21.92
26.94
30.23
30.17
25.43
16.50
5.53
-4.00
-9.61
-10.20
-6.93
-2.39
0.75
0.75
-2.36
-7.85
-14.11
-19.96
-24.27
-26.31
-25.61
-22.19
-16.98
-11.02
-5.71
-1.44
1.69
4.01
5.56
5.94
4.79
2.16
-0.61
-1.85
-0.05
4.73
10.78
15.32
15.94
12.35
6.23
0.77
-1.34
1.02
6.62
12.86
17.28
18.58
17.70
16.68
17.79
21.65
27.02
30.94
30.62
25.32
16.80
9.35
7.08
12.66
25.43
41.68
56.05
63.24
60.04
45.90
23.49
-2.66
-26.69
-43.73
-51.21
-49.51
-42.18
-33.89
-28.86
-28.78
-33.25
-40.18
-47.46
-53.97
-59.14
-63.01
-65.13
-65.21
-63.03
-59.51
-55.92
-53.46
-52.51
-51.91
-50.14
-45.37
-36.91
-25.24
-11.89
1.36
13.01
21.89
27.51
29.13
26.81
21.04
13.73
7.81
5.86
8.94
15.34
21.68
24.00
20.58
12.73
4.32
0.01
2.48
11.43
23.25
33.15
37.02
33.81
25.40
15.88
9.32
7.50
9.69
12.73
13.80
11.60
7.42
3.69
2.41
3.68
5.36
5.24
1.94
-3.33
-8.06
-9.82
-8.01
-4.04
-0.16
1.62
1.29
0.10
0.02
1.89
5.16
8.41
10.22
10.35
9.38
8.42
7.78
7.26
6.33
4.89
3.69
3.38
4.37
5.90
6.80
5.81
2.82
-1.38
-5.45
-7.96
-8.51
-7.26
-5.16
-3.05
-1.91
-2.11
-3.51
-5.68
-7.81
-9.64
-10.99
-12.44
-14.36
-16.64
-18.60
-19.17
-17.63
-13.74
-8.45
-2.99
1.24
3.62
4.24
3.93
3.78
4.63
6.66
9.22
11.58
13.10
13.70
13.70
13.34
12.69
11.28
8.95
5.58
1.89
-1.06
-2.42
-2.01
-0.78
0.06
-0.88
-4.06
-8.99
-14.12
-17.59
-18.09
-14.96
-8.81
-0.89
6.72
11.99
13.27
10.39
4.76
-0.91
-3.74
-2.59
1.75
6.69
9.73
10.01
8.32
6.67
6.35
7.47
8.56
8.21
5.86
2.25
-1.02
-2.95
-3.08
-1.79
0.84
4.74
10.05
16.06
21.15
23.60
22.06
16.92
9.81
3.07
-1.81
-4.57
-6.36
-8.71
-12.36
-16.81
-20.05
-20.09
-16.07
-8.93
-1.33
3.96
4.86
1.30
-5.35
-12.39
-17.45
-19.09
-17.32
-13.45
-9.29
-6.46
-5.19
-4.89
-3.87
-0.99
3.87
9.33
13.15
13.47
9.91
3.92
-2.29
-6.29
-7.04
-4.60
-0.06
4.96
9.01
10.74
9.52
5.13
-1.49
-8.34
-12.87
-13.10
-8.78
-1.32
6.23
11.20
12.06
9.59
5.99
3.76
4.36
7.23
10.52
12.07
11.40
9.46
8.32
9.17
11.63
13.90
13.52
9.29
0.66
-11.75
-27.41
-45.31
-63.33
-78.15
-85.26
-81.44
-66.25
-43.28
-18.31
2.80
16.96
24.67
28.35
30.57
31.87
31.55
28.43
22.95
17.00
12.98
12.59
15.45
19.74
22.87
23.31
20.80
16.61
12.32
8.96
6.91
5.25
3.14
-0.42
-5.67
-12.34
-19.52
-25.58
-28.84
-27.70
-22.02
-12.71
-2.27
6.61
11.87
13.07
11.67
9.62
8.75
9.20
10.19
10.44
9.24
7.14
5.27
4.84
5.88
8.13
10.60
13.06
15.66
18.76
22.34
25.21
26.00
23.32
17.59
10.27
3.53
-1.15
-3.93
-5.83
-8.04
-10.63
-12.60
-12.19
-8.97
-4.13
-0.23
-0.05
-4.36
-11.83
-19.05
-22.79
-21.41
-15.79
-8.68
-2.99
-0.70
-1.48
-3.95
-5.92
-6.34
-5.02
-2.91
-1.29
-0.68
-1.33
-2.53
-3.63
-3.71
-2.19
0.91
5.02
8.96
11.21
10.34
6.03
-1.14
-9.19
-15.93
-19.59
-19.38
-15.97
-10.61
-5.17
-0.67
2.45
4.76
6.84
8.78
10.20
10.12
8.46
5.58
2.94
1.72
2.20
3.55
4.09
3.03
0.82
-0.91
-0.76
1.37
3.70
3.98
0.90
-4.85
-10.58
-13.76
-12.73
-8.35
-2.62
2.03
4.19
4.08
2.54
0.87
-0.42
-1.12
-1.69
-2.56
-3.90
-5.68
-7.13
-7.49
-5.93
-2.73
1.28
4.64
6.28
6.25
5.68
5.89
7.26
9.08
9.53
7.26
2.44
-3.46
-8.26
-10.60
-10.38
-8.94
-7.36
-6.27
-5.08
-2.80
0.76
4.95
8.20
9.52
8.84
7.37
6.28
6.13
6.53
6.39
5.39
3.76
2.65
2.84
4.27
5.79
5.90
3.77
-0.29
-4.74
-7.90
-8.52
-6.56
-2.62
1.92
5.99
8.71
9.43
8.49
6.39
4.53
3.82
4.66
6.62
8.41
8.68
6.36
1.63
-5.12
-12.69
-19.97
-25.81
-28.98
-28.85
-25.21
-19.02
-11.66
-4.87
-0.03
2.35
2.34
0.26
-3.52
-8.06
-11.95
-13.02
-9.81
-2.03
8.49
18.50
25.05
26.49
23.70
18.63
13.29
8.78
5.31
2.81
1.58
2.44
5.16
8.76
10.83
9.46
4.38
-2.43
-7.39
-7.84
-3.28
4.15
10.89
13.99
12.84
8.79
4.28
1.01
-0.81
-1.97
-3.65
-5.72
-7.47
-7.73
-6.15
-3.65
-1.49
-0.77
-1.40
-2.50
-2.86
-2.10
-0.60
0.90
1.79
2.40
3.16
4.68
6.57
8.00
8.04
6.64
4.51
2.98
3.04
4.65
7.31
9.88
11.48
11.54
10.08
7.59
4.72
2.57
1.61
2.13
3.62
5.12
5.74
4.92
3.04
0.83
-0.66
-0.85
0.14
1.18
0.87
-1.70
-6.56
-12.49
-18.13
-22.10
-24.35
-25.48
-26.65
-28.24
-29.35
-28.57
-24.56
-17.54
-9.36
-2.77
0.16
-0.86
-4.51
-8.20
-10.18
-9.62
-7.12
-4.02
-1.77
-1.08
-1.58
-2.43
-2.37
-0.74
2.59
6.50
9.75
11.33
11.04
9.90
8.76
8.45
8.50
8.24
7.17
5.55
4.63
5.40
8.36
12.41
16.08
17.80
17.00
14.34
11.05
8.75
8.21
9.58
12.01
14.47
15.68
15.12
13.22
10.91
9.40
8.91
9.00
8.18
5.28
-0.23
-7.80
-16.06
-23.63
-29.19
-32.53
-33.71
-33.50
-32.48
-31.01
-29.31
-27.43
-25.89
-24.90
-25.06
-26.04
-26.88
-26.03
-22.11
-15.35
-7.23
-0.46
3.02
2.85
0.93
-0.12
1.77
6.64
12.16
15.73
15.57
12.49
9.01
8.36
12.01
18.75
25.42
28.28
25.81
18.78
10.49
4.71
3.68
7.04
11.98
15.32
14.37
9.02
0.90
-7.08
-12.08
-12.66
-9.08
-2.82
4.13
9.90
13.71
15.25
14.94
13.34
10.68
7.33
3.41
-0.53
-3.93
-5.75
-5.88
-4.72
-3.24
-2.52
-2.75
-3.49
-3.59
-2.57
-0.43
2.05
4.18
5.85
7.26
8.76
10.24
11.08
10.55
8.63
5.77
2.87
0.63
-1.21
-3.10
-5.43
-7.82
-9.66
-10.31
-9.78
-8.63
-7.38
-6.50
-5.38
-3.77
-1.63
0.34
1.34
0.68
-1.71
-4.58
-6.57
-6.24
-3.29
1.66
7.00
11.31
13.44
13.10
10.90
7.35
3.38
-0.65
-4.45
-7.61
-9.91
-11.06
-11.16
-10.12
-8.65
-7.17
-6.54
-7.26
-9.40
-12.53
-15.49
-17.06
-16.38
-13.57
-9.25
-4.57
-0.49
2.52
4.30
5.16
5.24
4.88
4.20
3.63
3.33
3.44
3.91
4.27
4.61
5.01
6.16
8.36
11.51
14.73
16.74
16.86
14.91
12.03
9.20
7.64
7.39
8.08
8.89
9.46
9.44
8.56
6.85
3.90
0.07
-4.30
-8.47
-11.68
-13.80
-14.85
-15.39
-15.33
-14.85
-13.69
-12.18
-10.83
-10.04
-10.24
-10.83
-11.24
-10.78
-9.47
-7.50
-5.31
-3.13
-0.81
1.40
3.37
4.63
4.94
4.14
2.98
2.34
2.49
3.28
3.55
2.48
-0.21
-3.43
-5.54
-5.28
-2.35
1.79
5.36
6.59
5.40
2.64
0.15
-0.40
1.70
6.29
12.35
18.53
23.19
25.07
23.21
17.78
10.42
3.96
1.04
2.53
6.82
10.36
9.99
4.70
-3.53
-10.91
-14.40
-13.15
-9.22
-5.45
-3.93
-4.27
-4.45
-2.49
2.10
7.90
12.78
14.98
14.39
11.81
8.47
5.14
2.05
-0.87
-3.75
-6.23
-8.00
-8.39
-7.45
-5.53
-3.42
-2.20
-2.70
-4.94
-7.84
-10.04
-10.04
-7.81
-4.60
-2.50
-3.03
-5.77
-8.82
-9.48
-6.24
0.50
8.17
13.91
16.11
14.77
11.57
8.00
5.02
2.40
-0.03
-2.60
-5.17
-7.42
-9.59
-11.60
-13.69
-15.57
-16.91
-17.33
-16.80
-15.72
-14.11
-12.14
-9.36
-5.88
-1.63
2.81
7.13
10.94
14.07
16.00
15.99
13.88
10.15
6.39
4.29
4.71
7.42
10.85
13.57
14.26
12.85
9.60
5.07
-0.27
-5.85
-10.72
-13.74
-13.89
-11.11
-6.19
-0.61
3.92
6.60
7.13
6.02
3.57
0.24
-3.71
-7.58
-10.61
-12.04
-11.78
-10.37
-8.37
-6.41
-4.09
-1.04
3.03
7.76
11.96
14.50
14.45
11.64
6.46
0.04
-6.56
-12.25
-16.09
-17.11
-14.66
-8.88
-0.78
7.58
13.56
15.10
11.53
4.06
-4.92
-12.70
-17.50
-18.83
-17.26
-13.66
-8.62
-3.04
1.95
4.45
3.28
-1.39
-7.02
-9.93
-7.39
0.76
11.82
21.65
26.57
25.66
20.39
13.56
7.65
3.87
2.41
2.72
4.37
6.75
9.04
10.13
9.13
6.19
2.14
-1.65
-4.30
-5.71
-6.59
-7.50
-8.14
-7.69
-4.95
0.06
5.89
9.78
9.46
4.17
-4.45
-13.03
-17.91
-16.93
-10.62
-1.55
6.38
10.52
10.05
6.38
1.92
-1.13
-1.62
-0.03
2.57
4.88
6.12
5.84
3.98
0.78
-2.93
-5.83
-6.67
-4.52
0.08
5.37
8.93
8.82
4.82
-1.95
-9.12
-14.65
-17.05
-16.07
-11.99
-5.78
1.23
7.77
12.16
13.39
11.17
6.29
-0.19
-6.80
-12.13
-15.26
-15.22
-11.74
-4.97
3.69
12.09
17.65
18.22
13.28
3.93
-6.81
-15.71
-20.13
-19.49
-15.11
-9.34
-4.65
-1.92
-0.47
1.68
5.63
11.29
16.41
18.22
15.22
8.00
-0.63
-7.57
-10.50
-9.60
-6.13
-1.73
2.24
5.33
7.24
7.97
7.35
5.98
4.74
4.59
5.96
8.20
9.92
9.84
7.76
4.33
1.01
-1.04
-1.63
-1.04
-0.01
1.46
3.22
5.49
7.86
9.90
11.13
11.38
10.86
9.46
7.46
4.90
2.28
-0.01
-1.63
-2.66
-3.45
-4.26
-5.26
-6.01
-6.25
-6.17
-6.77
-9.22
-14.03
-20.46
-26.25
-29.37
-28.21
-22.92
-15.00
-6.24
1.85
8.65
14.11
18.62
22.43
25.89
28.63
29.99
29.09
25.04
17.42
6.54
-6.47
-20.39
-33.73
-45.31
-53.82
-57.82
-56.29
-48.96
-37.07
-22.99
-9.78
0.38
6.69
9.83
11.56
13.07
15.01
17.06
18.62
18.89
17.57
14.62
10.95
7.74
5.85
5.56
5.55
3.77
-1.97
-12.01
-24.67
-36.32
-42.76
-41.42
-31.95
-16.71
0.79
17.06
29.75
37.95
41.59
41.46
38.14
32.90
26.98
21.81
18.45
17.23
17.64
18.28
18.19
16.32
12.73
7.85
2.79
-1.47
-4.16
-4.88
-3.86
-1.31
2.02
5.75
9.06
10.97
10.84
8.15
3.34
-2.75
-8.24
-11.56
-11.24
-7.17
-0.31
7.59
14.55
19.33
21.70
22.88
24.52
28.40
34.88
42.42
48.48
50.17
46.39
38.23
28.78
21.22
17.60
17.57
18.87
18.90
15.51
8.21
-2.87
-17.04
-33.56
-50.98
-66.83
-78.16
-81.98
-77.72
-66.96
-53.94
-42.97
-37.17
-36.95
-40.44
-44.98
-48.09
-49.13
-48.21
-46.14
-43.55
-40.51
-37.00
-32.64
-27.60
-22.19
-17.32
-13.22
-9.90
-6.61
-2.24
3.51
10.07
15.41
17.15
13.51
5.04
-5.55
-14.42
-17.98
-15.36
-8.08
0.20
6.55
9.37
9.63
9.36
10.52
13.71
17.61
20.64
21.54
20.65
19.33
19.01
20.28
22.42
24.45
25.23
25.02
24.16
23.42
22.96
22.59
22.32
22.46
23.69
26.20
29.71
32.82
34.11
32.81
29.36
25.07
21.21
18.67
17.06
15.76
13.57
10.07
5.24
-0.25
-5.23
-8.57
-9.22
-7.33
-3.69
-0.03
2.02
1.51
-1.78
-6.65
-11.72
-15.14
-16.05
-14.35
-11.11
-8.58
-9.09
-14.74
-26.07
-41.98
-59.39
-74.47
-83.41
-84.15
-76.79
-63.58
-48.41
-34.85
-25.87
-22.50
-24.20
-28.97
-34.43
-38.37
-39.12
-35.66
-27.45
-14.83
0.89
17.07
30.26
37.77
38.29
33.19
25.59
19.51
17.85
21.31
28.28
35.47
39.83
39.61
35.30
28.68
22.05
16.89
13.66
11.96
11.03
10.77
11.26
12.95
15.39
17.46
17.73
15.44
11.24
6.72
3.64
2.61
3.23
4.15
4.44
4.21
3.92
4.20
4.79
5.10
4.14
2.09
-0.15
-1.08
0.41
3.74
7.42
9.40
8.53
5.01
0.38
-3.34
-4.67
-3.15
0.19
3.94
6.17
5.79
2.53
-2.66
-7.79
-10.64
-9.07
-2.70
7.38
18.05
25.85
28.30
24.96
17.64
8.98
1.55
-4.12
-8.55
-12.91
-17.23
-19.87
-18.79
-12.57
-2.49
8.04
14.67
14.77
8.80
0.45
-5.92
-7.60
-4.62
-0.11
2.75
1.82
-2.35
-7.69
-12.02
-14.18
-14.33
-12.95
-10.56
-6.80
-1.58
4.47
9.55
11.53
9.30
3.53
-3.04
-7.49
-7.87
-4.56
-0.03
2.88
2.30
-1.19
-5.47
-7.85
-7.12
-3.36
1.71
6.20
9.02
9.84
9.22
7.54
5.17
2.12
-1.15
-3.90
-5.34
-4.81
-3.07
-1.33
-1.10
-2.61
-4.76
-5.17
-2.16
4.17
11.62
16.69
17.08
12.87
6.56
1.33
-0.85
-0.28
1.01
1.31
-0.13
-2.41
-4.34
-5.30
-5.85
-6.98
-9.02
-11.59
-13.62
-14.49
-14.27
-13.58
-13.30
-13.67
-14.51
-15.04
-14.83
-13.06
-9.38
-3.74
3.04
9.80
15.15
18.11
18.81
17.86
16.21
14.27
11.78
8.26
3.55
-1.51
-5.37
-6.39
-3.81
2.01
9.66
17.05
22.39
24.20
22.08
16.65
9.80
3.72
0.20
-0.05
2.03
4.83
6.03
4.48
-0.30
-7.26
-14.79
-20.72
-23.46
-22.30
-17.47
-10.61
-3.36
2.90
7.39
10.00
10.51
8.17
2.20
-7.15
-18.05
-27.22
-31.40
-29.17
-21.34
-10.70
-0.17
7.97
13.21
15.41
14.50
10.23
3.00
-5.44
-12.31
-14.79
-12.02
-5.15
2.72
8.73
11.16
10.22
7.37
3.89
0.93
-1.16
-2.09
-2.10
-1.74
-2.14
-4.18
-8.05
-12.72
-16.02
-16.01
-11.71
-4.10
4.73
12.66
18.06
20.75
21.06
19.79
17.24
14.07
10.73
7.70
5.18
2.82
0.75
-0.80
-0.85
0.96
4.36
8.10
10.53
11.08
9.96
8.78
8.55
9.40
10.01
8.62
4.27
-2.60
-9.96
-15.83
-18.59
-18.24
-15.24
-10.53
-5.13
0.14
4.15
6.17
5.39
2.30
-2.06
-5.92
-7.70
-6.99
-4.28
-1.50
-0.04
-0.93
-3.43
-6.14
-7.70
-7.24
-5.07
-1.81
1.62
5.20
9.00
13.18
17.37
20.64
22.18
21.33
18.48
14.07
9.30
4.74
0.87
-2.22
-4.70
-6.81
-9.17
-11.81
-14.84
-17.30
-18.13
-16.26
-11.43
-4.94
1.32
5.06
5.44
2.98
-0.52
-3.42
-4.78
-4.70
-4.01
-3.03
-1.87
-0.22
1.77
3.20
3.21
1.24
-2.06
-5.57
-7.85
-8.63
-8.25
-7.65
-7.17
-6.25
-4.25
-0.65
3.48
6.67
7.25
5.08
1.48
-1.53
-2.41
-1.21
0.76
1.66
0.59
-2.01
-4.58
-5.47
-4.40
-2.23
-0.66
-0.48
-1.15
-1.29
0.49
4.21
8.67
11.86
12.29
9.44
4.20
-1.82
-6.82
-9.52
-9.65
-7.62
-4.87
-2.67
-2.20
-3.55
-5.84
-7.59
-7.52
-5.87
-4.22
-4.51
-7.43
-11.73
-14.83
-14.19
-9.24
-1.31
6.53
11.98
13.94
13.22
11.27
9.16
7.24
5.25
3.37
2.07
2.30
4.22
7.38
10.49
12.39
12.60
11.19
9.16
7.21
6.39
7.18
9.60
13.29
17.03
19.43
18.98
15.27
8.66
0.76
-6.78
-12.51
-15.82
-17.21
-17.28
-17.28
-17.64
-18.68
-19.73
-19.92
-18.38
-14.67
-9.78
-4.90
-1.66
-0.37
-0.30
0.38
3.00
7.30
11.99
14.89
15.08
12.93
10.27
8.85
9.12
10.35
10.83
10.06
8.31
7.01
6.71
7.10
6.61
3.87
-1.04
-6.64
-10.31
-10.71
-7.91
-3.98
-1.33
-1.13
-2.86
-4.40
-4.11
-1.23
2.75
5.94
6.97
5.98
4.44
3.78
4.39
4.67
2.54
-3.72
-13.66
-24.70
-33.46
-36.88
-33.99
-25.98
-15.85
-6.87
-1.50
-0.32
-2.06
-4.43
-4.76
-1.73
4.39
11.55
17.10
18.77
16.17
10.72
4.80
0.96
-0.03
1.42
3.83
6.16
8.15
10.19
12.69
15.25
16.91
16.14
12.43
6.53
0.45
-3.54
-3.97
-0.82
4.17
8.96
11.71
11.70
9.56
6.14
2.34
-1.37
-4.92
-8.65
-12.25
-15.16
-16.26
-14.74
-10.43
-3.99
2.43
6.52
6.12
0.98
-7.19
-14.92
-18.54
-16.24
-8.73
0.56
8.23
12.23
13.28
13.29
13.97
15.42
15.79
13.38
7.47
-0.57
-8.38
-13.49
-14.78
-12.31
-6.96
-0.59
5.14
8.39
8.31
4.98
-0.12
-4.70
-6.89
-6.06
-3.59
-1.05
0.18
-0.14
-1.61
-3.61
-5.78
-8.08
-9.93
-10.83
-9.80
-7.09
-3.57
-0.58
0.96
1.23
0.78
0.39
-0.45
-2.44
-6.13
-10.70
-13.72
-13.15
-8.26
-0.87
6.14
10.18
10.54
8.18
4.72
1.37
-1.80
-4.76
-7.12
-7.73
-5.56
-0.46
6.39
12.86
17.19
18.16
15.95
11.36
5.73
0.38
-3.65
-5.68
-5.96
-5.08
-4.39
-4.66
-6.05
-7.85
-8.96
-8.97
-7.99
-6.85
-6.16
-6.21
-6.71
-7.20
-7.34
-6.77
-5.72
-4.59
-4.05
-4.31
-4.74
-4.15
-1.36
3.64
9.55
13.88
14.72
11.52
5.52
-0.95
-5.75
-7.70
-6.95
-3.87
0.61
6.06
11.57
16.06
17.98
15.97
9.88
1.25
-6.99
-11.61
-10.26
-3.00
8.09
19.64
28.00
31.11
28.49
21.47
12.52
4.22
-1.99
-5.81
-7.70
-8.69
-9.13
-8.99
-7.72
-4.98
-0.76
4.10
8.47
11.50
12.41
11.47
9.16
6.24
2.96
-0.67
-4.91
-9.76
-14.44
-17.63
-17.48
-13.21
-5.38
3.63
10.55
12.85
10.28
5.08
0.80
0.44
4.14
9.35
12.18
9.67
1.69
-9.27
-18.98
-24.65
-25.85
-24.98
-25.04
-27.66
-32.03
-35.27
-34.44
-27.96
-16.62
-2.76
10.61
21.10
27.71
30.32
30.03
28.07
25.62
23.03
20.08
16.04
10.45
3.89
-2.25
-5.85
-5.99
-3.29
-0.24
0.46
-2.80
-9.82
-18.09
-24.81
-27.60
-26.02
-21.03
-14.67
-8.64
-3.48
1.30
6.92
13.35
19.31
22.34
20.52
13.96
5.08
-1.93
-4.00
-0.24
6.76
12.93
14.53
10.48
2.76
-5.00
-9.01
-7.90
-2.59
4.11
10.00
14.38
17.88
21.73
25.66
27.94
25.24
15.29
-1.63
-21.65
-38.98
-48.83
-49.41
-43.42
-35.59
-30.07
-27.66
-26.11
-22.58
-16.00
-8.57
-3.76
-4.25
-9.04
-14.18
-14.86
-8.81
1.92
12.98
20.01
21.79
20.19
18.89
20.37
24.43
28.92
30.98
29.67
25.80
21.87
19.63
19.42
19.99
19.40
16.99
13.16
9.47
6.50
3.82
0.04
-5.57
-12.00
-16.74
-16.83
-11.62
-3.20
4.35
7.60
5.50
-0.01
-5.48
-8.25
-7.90
-6.20
-5.07
-5.59
-6.95
-7.34
-5.62
-1.75
2.62
5.89
6.93
6.27
5.48
5.96
8.39
11.84
15.04
16.49
15.98
13.72
10.41
6.15
0.48
-6.70
-14.80
-22.14
-27.06
-28.18
-25.75
-20.70
-14.69
-8.95
-3.85
0.42
4.10
6.65
7.79
7.13
4.87
1.98
-0.54
-1.46
-0.73
1.14
2.49
1.91
-0.93
-4.89
-7.45
-6.87
-2.68
2.96
7.19
7.63
3.91
-2.15
-8.28
-12.42
-14.51
-15.29
-16.39
-18.58
-22.03
-26.36
-30.57
-33.86
-34.89
-33.02
-27.81
-20.09
-11.00
-1.75
6.86
14.73
21.15
24.96
24.39
18.81
9.40
-0.20
-5.25
-3.08
6.12
18.15
27.73
30.65
26.04
16.46
6.20
-0.89
-3.34
-1.33
3.49
10.01
17.67
26.24
34.89
41.60
44.22
41.05
32.73
21.65
11.53
5.29
3.74
5.20
6.47
4.76
-1.16
-9.96
-18.90
-24.94
-26.06
-22.35
-15.14
-6.76
1.03
6.87
10.26
10.86
8.75
4.51
-1.25
-7.30
-13.12
-18.79
-25.40
-33.60
-42.96
-51.09
-54.17
-49.20
-35.13
-14.45
7.98
26.71
37.95
40.53
35.62
26.14
14.81
4.36
-3.41
-7.61
-8.42
-7.29
-5.92
-5.89
-7.15
-8.61
-8.44
-5.99
-2.23
0.61
0.27
-3.71
-9.70
-14.38
-15.07
-10.63
-2.35
7.01
14.96
20.04
22.41
22.89
22.61
22.09
21.29
19.58
16.13
10.89
3.78
-4.19
-11.98
-18.23
-21.93
-22.89
-21.23
-18.07
-14.28
-10.96
-8.46
-6.67
-4.86
-2.59
0.42
3.91
6.94
8.92
9.04
7.32
4.21
0.16
-4.20
-8.66
-12.94
-16.98
-20.07
-21.72
-21.18
-18.33
-14.19
-9.91
-7.02
-5.95
-6.35
-6.54
-5.07
-1.11
5.06
12.08
18.60
23.43
26.31
27.15
26.29
23.63
19.52
14.79
10.18
6.67
4.38
3.03
1.92
0.66
-0.80
-2.13
-2.97
-3.38
-2.93
-1.77
0.45
3.85
8.09
12.28
15.06
15.47
13.09
9.19
5.20
2.58
1.48
1.13
0.43
-0.93
-2.28
-2.74
-1.51
0.77
2.86
3.42
1.78
-1.69
-5.82
-9.46
-12.13
-13.38
-13.18
-10.90
-6.21
0.05
6.21
9.64
9.04
4.77
-0.38
-3.36
-2.22
2.54
8.17
11.58
10.94
6.84
1.57
-2.06
-2.93
-1.45
0.53
0.97
-1.17
-5.82
-11.75
-17.22
-20.68
-21.21
-18.87
-14.81
-10.92
-8.61
-8.61
-9.96
-10.87
-9.85
-6.52
-2.14
1.85
4.42
6.05
7.87
10.61
13.91
16.20
16.03
12.92
7.99
2.89
-0.94
-2.98
-3.65
-3.27
-1.66
1.70
6.58
11.83
15.45
15.48
11.62
5.23
-1.03
-4.93
-5.17
-2.06
3.20
8.75
12.82
14.15
11.89
6.62
-0.44
-7.26
-12.13
-14.19
-13.58
-11.33
-8.16
-4.67
-0.62
3.74
7.72
10.00
9.31
5.29
-1.16
-7.75
-12.42
-13.44
-10.39
-3.99
4.05
11.41
16.07
16.28
11.83
4.02
-4.09
-9.31
-9.40
-4.24
3.60
10.77
14.00
12.13
5.49
-3.82
-13.64
-21.85
-26.52
-26.36
-20.36
-9.47
3.68
14.86
20.30
18.26
10.15
0.02
-7.95
-10.98
-9.39
-5.43
-2.51
-3.05
-7.66
-14.92
-22.18
-26.87
-27.05
-22.87
-15.94
-8.72
-3.75
-2.19
-3.72
-6.33
-8.13
-7.62
-4.76
-0.31
4.55
8.62
11.32
12.12
11.07
8.36
4.77
0.98
-2.39
-5.19
-7.91
-11.08
-15.29
-20.43
-26.01
-31.00
-34.64
-36.48
-36.85
-36.82
-37.73
-41.22
-48.39
-59.51
-73.75
-89.35
-104.02
-115.51
-122.19
-122.90
-117.11
-104.50
-85.21
-59.82
-29.47
4.11
39.06
73.57
106.45
136.94
164.76
189.69
211.30
228.92
241.70
248.89
250.07
245.30
235.05
220.18
201.95
181.30
158.84
135.06
110.44
85.50
60.88
37.19
15.02
-5.14
-23.14
-39.08
-53.33
-66.38
-78.82
-91.33
-104.61
-119.18
-135.34
-153.26
-172.87
-193.92
-215.98
-238.54
-260.31
-280.22
-297.23
-310.35
-318.76
-321.66
-318.45
-308.72
-291.02
-264.66
-229.77
-187.21
-138.50
-85.82
-31.72
21.21
70.56
114.44
151.39
180.57
201.84
215.58
222.65
224.12
221.19
215.05
206.82
197.26
186.92
176.20
165.35
154.61
144.16
134.18
124.84
116.29
108.55
101.58
95.28
89.57
84.39
79.71
75.57
71.97
68.96
66.53
64.59
62.98
61.43
59.64
57.24
53.73
48.61
41.52
32.10
20.17
5.77
-11.16
-30.44
-51.61
-73.95
-96.68
-118.84
-139.44
-157.56
-172.49
-183.67
-190.70
-193.42
-191.83
-186.22
-176.78
-163.81
-147.67
-128.83
-107.82
-85.16
-61.52
-36.91
-12.67
10.01
30.23
47.39
61.13
71.34
78.18
81.99
83.28
82.51
80.31
77.23
73.65
69.84
65.97
62.13
58.45
54.98
51.73
48.72
45.99
43.48
41.10
38.77
36.50
34.38
32.57
31.16
30.26
29.78
29.52
29.20
28.58
27.67
26.74
26.22
26.45
27.76
29.88
32.23
34.19
35.27
35.48
35.32
35.67
37.18
40.12
43.99
47.58
49.40
48.30
43.87
36.63
27.76
18.14
8.32
-1.95
-13.39
-26.79
-42.59
-60.89
-81.47
-102.96
-123.88
-140.98
-149.80
-146.22
-128.58
-99.17
-63.94
-30.74
-5.40
9.44
15.15
15.48
14.14
13.16
12.53
11.42
9.42
7.27
6.16
7.03
9.78
13.26
15.96
16.61
15.07
12.15
9.29
7.64
7.80
9.45
11.65
13.29
13.54
12.33
10.22
8.11
6.75
6.53
7.27
8.43
9.34
9.55
8.97
7.90
6.77
5.97
5.65
5.75
6.00
6.10
5.84
5.18
4.22
3.14
2.07
1.10
0.20
-0.71
-1.69
-2.82
-4.09
-5.51
-7.06
-8.73
-10.51
-12.40
-14.44
-16.62
-18.96
-21.47
-24.16
-27.05
-30.15
-33.49
-37.08
-40.95
-45.11
-49.56
-54.27
-59.16
-64.09
-68.88
-73.13
-76.52
-78.62
-78.98
-77.14
-72.69
-65.44
-55.30
-42.67
-27.91
-11.62
5.29
21.69
36.39
48.13
55.73
58.27
55.09
46.00
31.18
11.25
-12.78
-39.41
-67.10
-94.19
-119.13
-140.47
-156.87
-167.32
-171.03
-167.77
-157.42
-139.99
-116.09
-86.81
-53.63
-18.35
17.20
51.30
82.50
109.88
132.69
150.47
162.99
170.11
171.95
168.92
161.65
151.20
138.80
125.63
112.55
100.06
88.31
77.19
66.73
57.28
49.68
45.02
44.24
47.80
55.09
64.82
75.02
83.88
90.20
93.62
94.91
95.40
96.63
99.66
104.51
109.79
113.26
112.25
104.84
90.31
69.23
43.42
15.09
-13.21
-39.30
-61.62
-79.86
-94.85
-108.10
-120.93
-133.08
-142.61
-146.21
-141.06
-126.51
-105.12
-81.88
-61.78
-47.69
-39.21
-33.78
-28.69
-23.16
-18.56
-17.14
-20.09
-25.83
-31.12
-32.57
-29.05
-22.08
-14.90
-10.31
-8.80
-8.80
-7.53
-3.26
3.98
12.24
19.10
22.84
23.09
21.09
18.68
17.90
19.71
23.86
28.32
29.84
25.22
12.89
-5.72
-26.56
-44.06
-53.41
-51.85
-39.19
-17.39
10.47
41.02
71.31
99.12
123.27
143.06
158.66
170.91
180.67
188.42
194.06
197.27
197.86
195.86
192.09
185.93
175.65
158.74
132.65
95.47
47.00
-10.58
-72.48
-131.43
-179.64
-211.12
-223.10
-217.98
-202.42
-184.51
-170.62
-163.55
-162.64
-165.87
-171.57
-179.33
-189.62
-202.52
-216.97
-230.94
-242.47
-250.47
-255.39
-258.72
-262.06
-266.24
-270.71
-273.76
-273.05
-267.33
-255.78
-238.77
-217.52
-193.67
-168.73
-143.63
-118.74
-94.05
-69.69
-45.90
-23.39
-3.03
14.57
29.19
41.25
51.55
61.05
70.53
80.51
91.07
102.01
113.01
123.46
133.03
141.42
148.53
154.22
158.45
161.16
162.37
162.23
161.03
159.28
157.40
155.78
154.73
154.46
154.97
156.06
157.41
158.58
159.47
160.47
162.41
166.26
172.57
181.14
190.85
200.01
206.81
209.69
207.60
200.09
187.43
170.58
151.46
132.62
116.55
105.44
100.57
101.98
108.62
118.65
129.96
140.50
148.43
152.21
150.81
143.78
131.11
113.29
91.34
66.45
39.86
12.76
-13.87
-39.18
-62.53
-83.43
-101.53
-116.62
-128.63
-137.64
-143.88
-147.69
-149.41
-149.41
-147.99
-145.40
-141.80
-137.37
-132.24
-126.60
-120.62
-114.45
-108.25
-102.10
-96.06
-90.13
-84.34
-78.67
-73.16
-67.84
-62.74
-57.90
-53.34
-49.06
-45.05
-41.29
-37.77
-34.47
-31.40
-28.53
-25.86
-23.38
-21.09
-18.96
-17.00
-15.21
-13.57
-12.08
-10.71
-9.48
-8.37
-7.39
-6.52
-5.76
-5.10
-4.53
-4.03
-3.60
-3.23
-2.91
-2.64
-2.40
-2.20
-2.01
-1.85
-1.71
-1.58
-1.48
-1.38
-1.29
-1.21
-1.14
-1.07
-1.01
-0.96
-0.90
-0.86
-0.81
-0.78
-0.74
-0.71
-0.68
-0.65
-0.62
-0.59
-0.57
-0.55
-0.53
-0.51
-0.49
-0.47
-0.46
-0.44
-0.42
-0.41
-0.40
-0.38
-0.37
-0.36
-0.35
-0.34
-0.33
-0.32
-0.31
-0.30
-0.30
-0.28
-0.28
-0.27
-0.26
-0.26
-0.25
-0.24
-0.24
-0.23
-0.22
-0.22
-0.22
-0.21
-0.20
-0.19
-0.19
-0.18
-0.18
-0.18
-0.17
-0.17
-0.16
-0.16
-0.16
-0.16
-0.15
-0.15
-0.14
-0.14
-0.14
-0.13
-0.13
-0.13
-0.12
-0.12
-0.12
-0.12
-0.12
-0.11
-0.11
-0.11
-0.11
-0.10
-0.10
-0.10
-0.10
-0.09
-0.10
-0.09
-0.09
-0.09
-0.09
-0.08
-0.08
-0.08
-0.08
-0.08
-0.08
-0.08
-0.08
-0.08
-0.08
-0.08
-0.08
-0.08
-0.08
-0.06
-0.04
-0.02
0.03
0.08
0.13
0.21
0.28
0.36
0.44
0.53
0.61
0.69
0.78
0.86
0.95
1.04
1.13
1.24
1.35
1.47
1.60
1.75
1.91
2.09
2.29
2.52
2.78
3.06
3.39
3.75
4.15
4.59
5.08
5.63
6.24
6.92
7.66
8.45
9.24
10.05
10.86
11.72
12.68
13.78
15.03
16.41
17.90
19.38
20.86
22.35
23.89
25.59
27.52
29.72
32.22
34.93
37.66
40.25
42.53
44.32
45.49
45.74
44.79
42.23
37.67
30.84
21.78
10.85
-1.15
-12.97
-23.80
-32.95
-40.22
-45.85
-50.35
-54.13
-57.34
-59.94
-61.23
-60.91
-59.00
-56.12
-53.30
-51.60
-51.66
-53.40
-55.99
-58.12
-58.95
-58.09
-56.01
-53.69
-52.16
-52.21
-54.36
-58.91
-65.61
-73.19
-78.77
-78.51
-68.95
-49.00
-21.04
9.47
36.04
53.84
61.53
61.27
57.00
52.27
48.70
46.03
43.24
39.77
36.06
33.11
31.68
31.71
32.49
33.01
32.42
30.51
27.69
24.67
22.16
20.62
20.13
20.50
21.24
21.83
21.82
20.98
19.35
17.41
15.69
14.62
14.52
15.18
16.28
17.91
21.00
26.75
35.45
45.24
52.09
51.27
39.55
17.29
-11.52
-41.08
-66.69
-86.36
-99.77
-108.03
-110.29
-104.05
-87.20
-60.64
-29.23
-0.30
19.76
28.36
27.44
21.98
16.74
14.33
14.48
15.29
15.08
13.43
11.28
9.73
9.55
10.59
12.11
13.00
12.66
11.14
9.04
7.24
6.31
6.48
7.36
8.32
8.65
8.08
6.74
5.12
3.82
3.16
3.22
3.69
4.17
4.24
3.79
2.95
2.03
1.31
0.96
0.95
1.09
1.16
0.98
0.54
-0.09
-0.75
-1.32
-1.75
-2.06
-2.33
-2.64
-3.02
-3.50
-4.06
-4.69
-5.37
-6.10
-6.91
-7.79
-8.77
-9.83
-10.99
-12.24
-13.60
-15.07
-16.65
-18.34
-20.15
-22.09
-24.14
-26.30
-28.60
-31.05
-33.68
-36.49
-39.46
-42.53
-45.63
-48.64
-51.44
-53.85
-55.74
-56.88
-56.93
-55.51
-52.26
-47.12
-39.97
-31.12
-21.16
-10.90
-1.24
7.08
13.65
18.41
21.56
23.42
24.26
24.12
23.00
20.84
17.73
14.17
10.89
8.75
8.27
9.41
11.43
13.13
13.36
11.51
7.99
4.08
1.46
1.31
3.77
7.57
10.46
10.26
5.96
-1.49
-9.38
-14.22
-13.30
-5.76
6.71
20.60
32.17
39.18
42.09
43.60
47.73
58.00
76.44
102.33
131.86
158.15
172.30
165.86
134.21
79.89
13.49
-48.05
-87.83
-95.74
-72.97
-31.82
9.13
32.33
27.53
-8.04
-66.91
-135.18
-197.75
-242.98
-265.25
-265.22
-247.98
-220.35
-188.52
-156.40
-126.25
-99.73
-78.19
-62.25
-51.08
-41.78
-29.78
-10.27
20.35
62.77
114.17
168.97
219.90
259.76
283.13
287.56
274.03
246.53
210.19
169.69
128.47
89.21
54.69
28.23
12.84
9.31
14.90
23.61
28.58
25.33
13.75
-2.38
-17.93
-29.30
-35.95
-39.61
-42.60
-46.26
-50.67
-55.60
-61.26
-68.11
-75.87
-82.38
-83.97
-77.05
-60.14
-35.21
-7.32
17.27
33.52
39.39
36.59
29.29
22.28
19.24
21.89
30.06
42.27
56.83
72.55
89.57
108.38
128.84
149.32
166.83
177.98
180.31
173.36
159.14
142.09
127.10
117.48
113.78
113.72
113.33
108.47
96.58
73.66
40.26
0.92
-37.50
-69.02
-90.84
-103.66
-110.10
-112.47
-111.90
-108.17
-101.38
-92.79
-84.81
-79.41
-77.19
-77.26
-77.58
-76.24
-71.91
-64.55
-55.57
-47.59
-42.80
-42.09
-46.18
-54.93
-67.91
-84.12
-102.40
-121.90
-142.92
-165.94
-191.27
-217.86
-242.01
-256.96
-254.24
-226.78
-169.59
-89.18
1.40
87.78
158.71
207.94
232.90
232.76
207.86
161.54
101.95
43.31
1.75
-11.24
6.12
45.42
92.52
134.03
161.65
173.10
170.60
157.47
136.17
108.49
76.66
43.93
14.04
-9.99
-27.07
-37.66
-43.13
-45.09
-45.10
-44.27
-43.26
-42.13
-40.43
-37.59
-33.28
-27.90
-22.58
-18.40
-15.91
-14.87
-14.25
-12.91
-10.03
-5.51
0.14
5.99
11.21
15.28
18.08
19.84
20.77
20.89
19.93
17.57
13.38
7.31
-0.33
-8.95
-17.78
-26.06
-33.17
-38.81
-42.89
-45.55
-46.98
-47.27
-46.54
-44.67
-41.45
-36.73
-30.38
-22.60
-13.75
-4.46
4.64
12.76
19.36
24.05
26.66
27.19
25.73
22.53
17.97
12.75
7.12
1.59
-3.26
-6.93
-9.08
-9.70
-9.21
-8.11
-6.67
-6.02
-6.80
-9.04
-12.15
-15.08
-17.02
-17.71
-17.34
-16.65
-18.26
-24.02
-33.57
-44.11
-51.12
-50.84
-42.36
-28.72
-15.92
-12.76
-26.14
-55.26
-95.64
-140.17
-182.64
-219.51
-249.36
-259.08
-239.43
-189.31
-117.90
-40.60
27.57
75.86
100.21
103.61
94.34
79.71
64.54
50.84
38.95
29.72
24.98
26.79
35.81
50.48
65.14
73.49
72.39
63.26
52.15
46.97
53.23
71.68
98.34
125.09
144.01
151.24
148.02
139.15
130.42
126.82
127.81
131.88
135.83
136.04
129.37
113.76
87.47
54.83
21.39
-7.17
-26.39
-35.21
-35.80
-31.73
-26.04
-20.10
-13.51
-6.03
1.77
8.90
14.04
16.57
16.93
16.02
14.45
12.47
8.99
2.70
-6.86
-18.75
-31.76
-44.10
-54.24
-61.54
-66.06
-68.65
-70.15
-70.66
-69.87
-67.39
-63.22
-57.91
-52.43
-47.83
-44.66
-43.01
-42.74
-43.69
-45.50
-46.65
-44.43
-35.91
-19.93
1.25
21.90
35.19
36.42
25.48
7.03
-12.13
-26.48
-34.37
-37.05
-37.46
-37.78
-38.35
-38.46
-37.58
-36.40
-36.55
-39.31
-44.51
-50.99
-56.79
-60.33
-61.33
-60.72
-60.18
-61.68
-66.66
-75.58
-87.20
-98.35
-104.55
-101.42
-86.65
-61.43
-30.31
0.53
25.76
42.76
52.52
57.80
61.43
64.89
68.10
70.40
71.70
72.64
74.11
76.23
77.83
76.82
71.24
60.28
44.91
28.14
13.92
5.79
5.69
12.63
22.76
30.19
29.36
17.49
-3.87
-29.19
-50.31
-59.10
-50.71
-25.32
12.67
55.59
94.82
123.16
136.34
133.74
117.75
91.37
60.28
28.45
-1.71
-28.71
-51.17
-67.96
-78.60
-83.96
-86.02
-87.03
-89.03
-92.89
-97.88
-102.27
-104.24
-102.46
-96.60
-87.44
-75.29
-60.81
-44.25
-25.43
-4.04
19.79
45.24
70.75
94.22
113.68
127.34
134.21
134.23
128.07
116.99
102.21
84.82
65.88
46.35
26.99
8.56
-8.21
-22.79
-34.64
-43.84
-50.89
-56.38
-60.85
-64.76
-68.15
-70.78
-72.21
-71.51
-68.25
-62.34
-54.03
-43.74
-32.17
-20.02
-8.13
2.56
11.70
18.47
22.01
21.59
16.80
7.51
-5.74
-22.33
-45.18
-72.76
-102.55
-132.10
-159.47
-182.73
-202.07
-217.54
-229.16
-236.97
-240.51
-239.98
-235.82
-228.33
-218.55
-207.49
-195.81
-184.07
-172.70
-161.54
-150.73
-140.49
-130.99
-122.28
-114.33
-106.80
-99.34
-91.67
-83.29
-74.06
-64.04
-53.40
-42.38
-31.27
-20.27
-9.65
0.25
9.19
16.76
22.56
26.30
27.84
27.30
25.02
21.52
17.32
12.97
8.85
5.17
1.97
-0.85
-3.48
-6.16
-9.14
-12.70
-17.07
-22.40
-28.76
-36.05
-44.07
-52.45
-60.76
-68.51
-75.27
-80.72
-84.68
-87.08
-87.86
-86.89
-83.97
-78.84
-71.26
-61.23
-49.07
-35.43
-21.24
-7.44
5.28
16.65
26.79
36.13
45.06
53.82
62.31
70.27
77.55
84.42
91.77
100.86
113.06
129.27
149.60
173.20
198.49
223.66
247.16
268.09
286.29
302.20
316.77
331.19
346.30
361.97
376.46
386.44
387.72
376.80
352.53
317.09
275.57
234.42
199.26
173.36
157.13
148.90
146.15
146.71
149.07
152.25
155.40
157.63
158.17
156.49
152.52
146.56
139.02
130.18
120.07
108.44
94.93
79.28
61.48
42.12
22.35
3.75
-12.06
-23.85
-31.17
-34.56
-35.27
-34.86
-34.64
-35.27
-36.78
-38.78
-40.78
-42.50
-43.97
-45.39
-47.04
-48.97
-51.12
-53.47
-56.12
-59.30
-63.21
-67.69
-72.07
-75.38
-76.41
-74.38
-69.03
-60.64
-49.79
-37.17
-23.27
-8.50
6.53
21.00
33.79
43.95
51.08
55.55
58.42
60.94
64.10
68.17
72.74
77.00
80.11
81.71
81.84
80.96
79.85
79.35
80.17
82.66
86.48
90.48
93.00
92.30
87.23
77.73
64.72
49.74
34.23
19.09
4.49
-9.97
-24.98
-40.97
-57.82
-74.77
-90.40
-103.05
-111.22
-113.98
-111.21
-103.65
-92.51
-79.19
-65.17
-51.86
-40.58
-32.45
-28.21
-27.93
-31.03
-36.41
-42.82
-49.19
-54.87
-59.68
-63.88
-68.03
-72.67
-77.84
-82.83
-86.18
-86.10
-80.97
-70.23
-54.62
-35.99
-16.81
0.68
14.87
24.91
30.40
31.34
27.80
20.13
9.14
-3.89
-17.20
-28.93
-37.40
-41.47
-40.73
-35.70
-27.67
-18.42
-9.79
-2.93
1.86
5.19
8.02
11.06
14.40
17.48
19.60
20.36
19.94
18.89
17.68
16.47
15.01
13.04
10.48
7.65
5.02
3.04
2.02
2.20
3.92
7.54
13.31
21.11
30.30
39.77
48.41
55.32
60.08
62.66
63.07
61.25
57.05
50.44
41.64
31.32
20.33
9.42
-0.96
-10.75
-19.97
-28.54
-36.04
-41.85
-45.29
-46.08
-44.36
-40.79
-36.28
-31.73
-27.79
-24.80
-22.74
-21.31
-20.15
-18.83
-16.98
-14.35
-10.82
-6.44
-1.24
4.77
11.79
20.09
29.93
41.48
54.68
69.34
85.05
101.16
116.74
130.54
141.10
146.97
147.03
140.88
129.03
112.76
93.62
72.99
51.71
29.98
7.65
-15.36
-38.86
-62.23
-84.64
-105.42
-123.97
-139.63
-151.37
-157.74
-157.24
-149.04
-133.58
-112.68
-89.22
-66.11
-45.74
-29.70
-18.71
-13.04
-12.53
-16.53
-23.83
-32.84
-42.00
-50.41
-58.06
-65.34
-72.58
-79.51
-85.15
-88.38
-88.60
-86.02
-81.67
-76.82
-72.25
-68.07
-63.79
-58.64
-51.92
-43.30
-32.75
-20.48
-6.92
7.42
21.62
34.45
44.50
50.38
51.07
46.09
35.52
19.83
-0.09
-23.14
-47.80
-72.21
-94.31
-112.23
-124.52
-130.30
-129.12
-120.65
-104.57
-80.93
-50.54
-15.42
21.31
56.08
85.75
108.45
123.82
132.79
136.81
137.37
135.58
132.25
128.05
123.55
119.22
115.41
112.14
109.32
106.73
104.11
101.22
97.84
93.73
88.67
82.56
75.45
67.44
58.74
49.42
39.52
29.06
18.05
6.65
-4.98
-16.56
-27.89
-38.66
-48.56
-57.34
-64.78
-70.80
-75.44
-78.94
-81.59
-83.72
-85.51
-87.09
-88.38
-89.24
-89.36
-88.43
-86.26
-82.93
-78.95
-75.02
-71.99
-70.40
-70.42
-71.71
-73.68
-75.65
-77.09
-77.62
-76.82
-74.32
-69.75
-62.88
-53.94
-43.51
-32.34
-21.22
-10.61
-0.67
8.68
17.53
25.91
33.61
40.33
45.84
50.10
53.29
55.70
57.62
59.12
60.12
60.35
59.57
57.67
54.78
51.13
47.05
42.76
38.44
34.23
30.10
26.21
22.69
19.67
17.23
15.33
13.71
12.10
10.17
7.77
5.01
2.33
0.26
-0.70
-0.20
1.76
5.02
9.22
13.90
18.65
23.15
27.14
30.43
32.94
34.62
35.57
35.96
35.95
35.76
35.56
35.42
35.35
35.30
35.14
34.78
34.07
32.79
30.76
27.69
23.27
17.25
9.49
-0.00
-11.02
-23.19
-36.06
-49.04
-61.58
-73.14
-83.25
-91.59
-98.02
-102.49
-105.04
-105.70
-104.43
-101.15
-95.87
-88.66
-79.79
-69.55
-58.24
-46.06
-33.18
-19.91
-6.72
5.68
16.65
25.62
32.46
37.36
40.85
43.35
45.09
46.09
46.25
45.54
44.01
41.82
39.20
36.27
33.08
29.62
26.02
22.48
19.23
16.36
13.74
11.06
7.84
3.63
-1.86
-8.61
-16.44
-24.93
-33.54
-41.66
-48.65
-54.01
-57.41
-58.71
-57.82
-54.76
-49.48
-41.94
-32.24
-20.76
-8.28
4.19
15.57
25.08
32.36
37.49
40.86
42.89
43.93
44.17
43.84
43.13
42.27
41.40
40.62
39.90
39.11
38.26
37.32
36.30
35.00
33.07
30.02
25.50
19.43
12.01
3.80
-4.44
-11.96
-18.11
-22.46
-24.95
-25.85
-25.83
-25.69
-26.20
-27.85
-30.83
-34.99
-39.89
-44.95
-49.45
-52.68
-54.03
-53.07
-49.79
-44.52
-38.01
-31.11
-24.64
-19.14
-14.74
-11.33
-8.59
-6.25
-4.09
-2.06
-0.09
1.84
3.82
6.03
8.55
11.35
14.20
16.80
18.84
20.12
20.49
19.93
18.43
16.08
13.04
9.54
5.85
2.25
-1.08
-3.99
-6.38
-8.06
-8.86
-8.63
-7.37
-5.27
-2.60
0.40
3.59
6.85
10.05
12.90
14.96
15.84
15.27
13.28
10.25
6.61
2.82
-0.83
-4.26
-7.44
-10.40
-13.10
-15.56
-17.80
-19.94
-21.98
-23.90
-25.55
-26.80
-27.53
-27.70
-27.49
-27.00
-26.30
-25.36
-23.93
-21.86
-19.03
-15.56
-11.63
-7.57
-3.55
0.31
3.96
7.56
11.13
14.77
18.48
22.27
26.12
30.05
33.98
37.82
41.51
44.86
47.69
49.77
50.89
50.87
49.65
47.17
43.34
38.22
31.81
24.27
15.91
7.16
-1.43
-9.34
-16.26
-22.09
-26.93
-30.98
-34.36
-37.14
-39.32
-40.95
-42.05
-42.76
-43.15
-43.30
-43.22
-42.79
-41.86
-40.34
-38.15
-35.37
-32.24
-29.10
-26.27
-24.05
-22.51
-21.49
-20.81
-20.14
-19.16
-17.60
-15.18
-11.80
-7.43
-2.12
4.19
11.62
20.41
30.76
42.67
55.89
69.85
83.85
97.27
109.72
120.98
130.96
139.53
146.37
151.04
152.85
151.06
145.02
134.29
118.76
98.85
75.55
50.20
24.41
-0.48
-23.41
-43.90
-61.82
-77.35
-90.71
-102.02
-111.39
-118.86
-124.59
-128.76
-131.69
-133.61
-134.66
-134.78
-133.67
-131.03
-126.41
-119.50
-110.00
-97.75
-82.71
-65.03
-45.08
-23.52
-1.30
20.65
41.36
60.20
76.82
91.03
102.68
111.34
116.30
116.69
111.91
101.91
87.41
69.77
50.65
31.61
13.85
-1.79
-14.81
-24.79
-31.45
-34.77
-35.01
-32.89
-29.34
-25.38
-21.83
-19.21
-17.72
-17.32
-17.81
-18.99
-20.58
-22.30
-23.85
-24.96
-25.43
-25.29
-24.73
-24.08
-23.69
-23.77
-24.35
-25.25
-26.21
-26.88
-27.07
-26.67
-25.71
-24.27
-22.45
-20.40
-18.16
-15.76
-13.07
-9.95
-6.19
-1.74
3.03
7.46
10.63
11.70
10.36
6.99
2.44
-2.12
-5.79
-8.20
-9.49
-10.14
-10.77
-11.70
-12.97
-14.43
-15.80
-16.79
-17.38
-17.48
-17.13
-16.45
-15.45
-14.22
-12.96
-11.65
-10.13
-8.24
-5.79
-2.98
-0.68
0.33
-0.63
-4.00
-9.06
-14.37
-18.32
-19.61
-17.98
-15.10
-12.40
-10.81
-10.70
-10.55
-8.26
-2.16
8.20
21.77
34.95
45.91
54.81
63.63
77.08
100.12
136.21
186.04
247.47
313.94
380.09
441.87
487.85
507.43
492.89
442.95
363.48
272.75
174.02
65.78
-54.01
-186.30
-326.34
-464.77
-590.98
-695.69
-762.90
-782.89
-751.83
-675.40
-568.51
-448.85
-332.13
-228.77
-143.49
-76.74
-29.17
0.03
14.42
17.51
13.97
8.67
5.72
7.45
14.00
21.97
28.22
31.10
29.83
26.21
22.97
22.38
25.33
31.14
37.11
40.73
40.48
36.18
29.79
24.66
24.54
32.37
49.37
74.13
103.50
133.50
160.48
182.13
197.43
206.33
209.04
205.84
196.94
182.90
164.73
143.89
121.94
100.04
78.97
59.03
40.24
22.61
6.13
-9.19
-23.24
-35.80
-46.50
-54.75
-59.91
-61.64
-59.95
-55.22
-48.07
-39.04
-28.61
-17.28
-5.70
5.30
14.76
21.92
26.42
28.35
28.13
26.28
23.12
18.87
13.71
7.90
1.89
-3.79
-8.70
-12.43
-14.66
-15.26
-14.14
-11.28
-6.90
-1.39
4.62
10.30
14.96
18.10
19.49
19.24
17.73
15.48
13.13
11.44
10.94
12.08
14.96
19.20
24.16
28.92
32.56
34.41
34.29
32.28
28.88
24.71
20.33
16.15
12.38
8.91
5.57
2.12
-1.82
-6.52
-12.06
-18.30
-24.76
-30.83
-35.99
-39.99
-42.92
-45.22
-47.20
-48.75
-49.26
-47.75
-43.29
-35.58
-25.09
-13.03
-1.07
9.39
17.50
23.08
26.58
28.71
30.04
30.95
31.63
32.03
32.04
31.42
29.80
26.86
22.42
16.49
9.60
2.73
-3.01
-6.54
-7.01
-3.96
2.89
13.48
27.29
43.11
59.12
72.98
82.59
86.58
84.77
78.13
68.30
57.01
45.63
35.11
26.04
18.96
14.16
11.65
11.03
11.34
11.35
9.75
5.56
-1.69
-11.80
-24.09
-37.59
-51.17
-63.92
-75.11
-84.25
-91.01
-95.02
-95.81
-92.98
-86.35
-76.27
-63.91
-50.98
-39.46
-31.09
-26.96
-27.29
-31.79
-39.84
-50.84
-64.35
-79.64
-95.64
-110.86
-123.46
-131.78
-134.72
-132.04
-124.35
-112.89
-99.03
-83.93
-68.38
-52.78
-37.39
-22.46
-8.37
4.39
15.39
24.41
31.50
36.91
41.01
43.95
45.74
46.28
45.54
43.74
41.42
39.28
37.94
37.85
39.08
41.36
44.25
47.29
50.12
52.53
54.40
55.62
56.15
55.97
55.10
53.72
52.07
50.50
49.33
48.75
48.77
49.17
49.50
49.25
47.95
45.34
41.51
36.84
31.80
26.98
22.80
19.42
16.67
14.05
10.93
6.66
1.10
-5.49
-12.25
-18.10
-22.20
-24.36
-25.19
-25.75
-27.09
-29.62
-32.89
-35.72
-36.79
-35.08
-30.27
-22.83
-13.79
-4.34
4.37
11.49
16.54
19.47
20.52
20.35
19.80
19.61
20.24
21.79
23.93
26.08
27.65
27.96
26.47
22.78
16.71
8.49
-1.14
-11.07
-19.97
-26.62
-30.23
-30.59
-28.15
-23.87
-18.92
-14.25
-10.43
-7.46
-5.03
-2.75
-0.49
1.54
2.86
3.07
2.04
-0.08
-2.82
-5.81
-8.81
-11.70
-14.44
-16.94
-19.07
-20.77
-22.11
-23.21
-24.31
-25.61
-27.13
-28.68
-29.84
-30.17
-29.38
-27.41
-24.48
-21.05
-17.61
-14.56
-12.12
-10.37
-9.35
-9.18
-10.06
-12.18
-15.53
-19.95
-25.09
-30.63
-36.23
-41.63
-46.64
-51.03
-54.56
-56.99
-58.13
-57.92
-56.42
-53.74
-50.00
-45.46
-40.20
-34.32
-27.82
-20.69
-12.99
-4.89
3.37
11.57
19.46
26.95
33.94
40.34
46.08
51.22
55.99
60.72
65.84
71.53
77.85
84.59
91.41
98.16
104.83
111.66
118.86
126.70
135.22
144.29
153.46
161.88
168.57
172.40
172.35
167.77
158.52
144.92
127.66
107.65
85.65
62.51
38.85
15.34
-7.37
-28.63
-47.98
-65.16
-80.09
-92.85
-103.48
-112.02
-118.47
-122.91
-125.54
-126.72
-126.91
-126.51
-125.82
-124.97
-123.94
-122.69
-121.08
-118.95
-116.13
-112.59
-108.36
-103.55
-98.26
-92.48
-86.16
-79.15
-71.35
-62.81
-53.84
-44.81
-36.12
-28.01
-20.47
-13.38
-6.59
-0.08
5.99
11.28
15.46
18.32
19.99
20.86
21.62
23.06
25.93
30.82
38.11
48.00
60.32
74.54
89.61
104.21
116.94
126.82
133.36
136.67
137.02
134.42
128.45
118.39
103.67
84.35
61.35
36.28
11.02
-12.73
-33.74
-51.16
-64.37
-72.91
-76.59
-75.70
-71.05
-63.99
-55.98
-48.27
-41.57
-36.05
-31.50
-27.59
-24.18
-21.15
-18.55
-16.36
-14.44
-12.55
-10.57
-8.51
-6.68
-5.49
-5.13
-5.47
-6.15
-6.89
-7.77
-9.45
-12.91
-18.89
-27.34
-37.08
-45.98
-51.36
-50.73
-42.29
-25.21
0.46
33.84
73.18
115.66
157.36
193.48
219.03
229.68
222.76
197.99
157.33
104.35
43.43
-20.81
-83.75
-140.66
-187.11
-219.46
-235.81
-236.41
-223.80
-201.94
-174.99
-146.34
-118.09
-91.21
-65.89
-42.09
-19.50
2.45
24.43
47.06
70.41
93.68
115.22
132.84
144.33
148.14
143.87
132.41
115.81
96.71
78.14
62.99
53.61
51.63
57.64
71.16
90.74
114.23
138.84
161.59
179.67
190.78
193.60
188.06
175.22
156.99
135.63
113.23
91.66
72.72
58.04
49.01
46.29
49.34
56.05
62.99
65.82
60.19
42.44
10.20
-37.18
-98.45
-170.49
-248.57
-326.97
-399.64
-461.11
-507.20
-535.36
-544.58
-535.07
-507.90
-464.94
-408.86
-343.14
-271.90
-199.62
-130.37
-67.27
-12.07
34.87
74.24
107.35
135.57
160.09
181.69
201.11
219.08
236.35
253.26
269.33
282.92
291.45
291.83
281.50
259.35
226.24
184.72
138.13
89.83
42.70
-0.75
-38.36
-68.12
-88.43
-98.59
-99.23
-92.57
-81.96
-70.85
-61.64
-55.69
-53.12
-53.31
-55.12
-57.43
-59.79
-62.29
-65.32
-68.32
-70.84
-72.24
-71.95
-69.10
-63.13
-55.13
-47.14
-41.39
-37.62
-35.26
-33.29
-30.92
-27.08
-21.10
-14.47
-9.47
-8.25
-9.49
-12.64
-17.95
-26.95
-40.45
-58.43
-81.96
-112.09
-149.67
-192.00
-238.45
-289.64
-346.62
-407.09
-453.13
-465.53
-430.26
-365.57
-283.69
-194.09
-98.04
-1.49
89.63
170.57
236.20
282.78
308.79
318.87
317.88
310.30
298.76
285.85
273.53
261.28
247.43
230.35
211.98
193.70
176.39
159.75
144.00
129.74
116.64
104.10
91.57
80.40
71.28
64.35
58.91
54.78
52.02
50.17
48.44
45.93
42.61
38.38
33.21
27.00
20.18
13.40
7.04
1.24
-4.06
-8.79
-13.07
-17.09
-21.07
-24.96
-28.38
-30.98
-32.58
-33.27
-33.48
-33.81
-34.79
-36.73
-39.53
-42.75
-45.90
-48.54
-50.50
-51.94
-53.26
-55.00
-57.62
-61.05
-64.58
-66.86
-66.36
-61.91
-53.00
-39.83
-23.14
-3.86
17.47
40.96
67.61
99.04
136.90
182.24
234.55
291.04
346.33
393.43
425.32
436.58
424.54
389.36
333.37
259.96
172.68
74.80
-30.44
-139.40
-247.65
-349.72
-439.31
-509.55
-553.98
-567.83
-549.39
-501.12
-429.61
-344.30
-255.31
-171.50
-98.97
-40.81
2.42
31.78
49.12
56.53
56.16
50.45
41.80
32.56
24.61
19.27
16.87
17.06
18.99
21.93
25.62
30.23
36.12
43.28
51.13
58.46
64.04
66.99
67.24
65.56
63.10
60.83
59.31
58.46
57.68
56.25
53.61
49.63
44.67
39.47
34.73
30.93
28.04
25.48
22.41
18.12
12.42
5.75
-1.09
-7.29
-12.37
-16.40
-19.81
-23.07
-26.36
-29.43
-31.80
-33.11
-33.25
-32.43
-30.97
-29.10
-26.80
-23.98
-20.58
-16.77
-12.92
-9.29
-5.99
-2.90
0.19
3.38
6.59
9.53
11.96
13.71
14.91
15.84
16.92
18.65
21.39
25.28
30.11
35.29
39.96
43.26
44.57
43.77
41.29
37.93
34.63
32.23
31.27
31.87
33.56
35.47
36.43
35.42
31.91
26.13
19.06
11.96
5.91
1.22
-2.57
-6.43
-11.22
-17.25
-24.04
-30.73
-36.54
-41.18
-44.85
-47.85
-50.30
-51.73
-51.41
-48.67
-43.37
-36.05
-27.80
-19.94
-13.38
-8.59
-5.46
-3.64
-2.64
-1.96
-1.03
0.52
2.85
5.96
9.53
13.12
16.31
18.71
20.17
20.75
20.59
19.93
19.08
18.31
17.88
17.89
18.19
18.41
18.04
16.64
13.93
9.93
4.94
-0.45
-5.47
-9.40
-11.63
-11.80
-9.83
-6.03
-0.93
4.72
10.23
14.95
18.35
20.08
19.96
17.97
14.27
9.29
3.52
-2.40
-7.88
-12.59
-16.32
-19.14
-21.21
-22.70
-23.53
-23.50
-22.31
-19.68
-15.74
-10.93
-5.94
-1.48
1.98
4.36
5.80
6.55
6.95
7.11
7.12
6.88
6.31
5.28
3.69
1.54
-1.09
-3.84
-6.36
-8.15
-8.86
-8.22
-6.19
-3.05
0.71
4.30
7.06
8.50
8.56
7.52
5.87
4.07
2.32
0.69
-0.95
-2.59
-4.23
-5.71
-6.87
-7.63
-7.97
-7.87
-7.21
-5.93
-4.00
-1.73
0.43
1.92
2.29
1.40
-0.54
-2.93
-5.19
-6.78
-7.50
-7.59
-7.36
-7.22
-7.34
-7.63
-7.72
-7.26
-5.97
-3.77
-0.85
2.55
6.16
9.77
13.18
16.24
18.69
20.35
21.04
20.70
19.46
17.56
15.29
12.96
10.69
8.46
6.15
3.68
1.06
-1.48
-3.61
-5.02
-5.52
-5.18
-4.32
-3.34
-2.66
-2.55
-3.14
-4.35
-6.04
-7.89
-9.65
-11.21
-12.57
-14.11
-16.49
-20.39
-26.33
-34.35
-43.81
-53.55
-62.17
-68.37
-71.32
-70.78
-66.98
-60.39
-51.57
-41.13
-29.71
-18.14
-7.23
2.28
9.97
15.80
20.02
23.04
25.14
26.48
27.09
27.02
26.35
25.36
24.33
23.52
23.19
23.51
24.60
26.46
28.97
31.83
34.61
36.81
37.93
37.63
35.82
32.78
29.07
25.47
22.69
21.25
21.33
22.81
25.32
28.34
31.52
34.63
37.64
40.60
43.53
46.30
48.68
50.34
50.95
50.35
48.51
45.65
42.13
38.47
35.25
33.09
32.38
33.12
34.72
36.09
35.91
33.19
27.49
19.11
8.95
-1.84
-12.28
-21.64
-29.61
-36.10
-41.09
-44.83
-47.62
-49.85
-51.74
-53.28
-54.04
-53.43
-50.80
-45.82
-38.71
-30.23
-21.53
-13.92
-8.53
-5.99
-6.34
-8.99
-12.83
-16.54
-18.88
-18.95
-16.49
-11.96
-6.21
-0.26
5.19
10.05
14.71
19.69
25.12
30.48
34.75
36.97
36.73
34.44
31.15
27.92
25.52
24.01
22.98
21.90
20.49
18.68
16.54
14.07
11.06
7.21
2.38
-3.35
-9.57
-15.69
-21.15
-25.72
-29.47
-32.75
-36.05
-39.65
-43.52
-47.35
-50.63
-52.89
-53.91
-53.68
-52.38
-50.25
-47.46
-44.18
-40.61
-37.13
-34.09
-31.86
-30.53
-29.97
-29.90
-29.92
-29.72
-29.12
-28.14
-26.90
-25.63
-24.51
-23.68
-23.27
-23.24
-23.49
-23.88
-24.30
-24.84
-25.72
-27.20
-29.52
-32.69
-36.48
-40.36
-43.69
-46.01
-47.30
-48.07
-49.26
-51.87
-56.59
-63.37
-71.24
-78.13
-81.41
-78.52
-67.65
-48.38
-21.88
9.22
41.42
71.19
95.75
113.74
125.17
131.18
133.23
132.51
129.52
124.02
115.52
103.83
89.55
73.97
58.72
45.04
33.47
23.87
15.72
8.72
2.97
-1.09
-2.97
-2.52
-0.23
3.07
6.70
10.34
14.38
19.47
26.07
34.02
42.59
50.71
57.41
62.22
65.07
66.29
66.18
64.94
62.55
58.94
54.12
48.31
41.97
35.58
29.57
24.03
18.74
13.24
6.94
-0.58
-9.54
-19.73
-30.81
-42.30
-53.85
-65.26
-76.48
-87.57
-98.55
-109.29
-119.38
-128.20
-134.87
-138.37
-137.63
-131.63
-119.80
-102.25
-80.03
-55.12
-30.11
-7.59
10.63
23.87
32.67
38.35
42.27
45.29
47.45
48.37
47.59
45.32
42.25
39.52
38.02
37.97
38.64
38.67
36.55
31.21
22.68
11.97
0.81
-9.01
-16.18
-20.22
-21.43
-20.49
-18.27
-15.39
-12.36
-9.47
-6.46
-2.34
4.58
15.87
31.68
49.53
64.26
69.33
59.39
32.97
-6.48
-51.33
-92.35
-121.88
-135.92
-134.38
-120.02
-96.45
-66.71
-33.15
2.34
37.72
70.56
98.29
119.03
132.01
137.73
137.66
133.28
125.58
114.84
100.73
82.78
60.81
35.18
6.85
-22.84
-52.45
-80.47
-105.45
-125.95
-140.53
-147.95
-147.38
-138.68
-122.50
-100.32
-74.11
-46.09
-18.35
7.45
30.09
48.82
63.25
73.34
79.30
81.52
80.48
76.70
70.63
62.71
53.36
43.00
32.10
21.11
10.49
0.66
-7.93
-14.81
-19.52
-21.64
-20.75
-16.37
-8.00
4.83
22.30
43.94
68.46
93.89
117.82
138.09
153.02
161.27
161.59
152.70
133.61
104.44
67.27
26.21
-13.32
-46.20
-69.14
-81.53
-85.07
-82.80
-77.92
-73.16
-70.62
-71.99
-78.64
-91.28
-109.39
-131.11
-153.42
-173.03
-187.26
-194.77
-195.54
-190.54
-181.12
-168.41
-153.27
-136.26
-117.94
-98.87
-79.64
-60.61
-41.76
-22.76
-3.11
17.45
38.80
60.25
80.62
98.55
112.76
122.38
126.95
126.28
120.44
110.01
96.29
81.25
67.18
55.86
47.87
42.41
37.59
31.47
22.89
12.00
-0.06
-11.65
-21.45
-28.74
-33.31
-35.28
-34.67
-31.46
-25.50
-16.79
-5.52
7.77
22.24
36.75
50.10
61.20
69.25
73.80
74.90
72.95
68.58
62.58
55.65
48.34
41.07
34.04
27.23
20.61
13.96
7.04
-0.42
-8.62
-17.68
-27.42
-37.46
-47.23
-55.98
-63.04
-67.82
-70.01
-69.43
-66.17
-60.41
-52.40
-42.39
-30.80
-18.36
-6.13
4.63
12.81
17.93
20.29
20.96
21.38
22.73
25.47
29.33
33.60
37.50
40.63
43.07
45.13
47.04
48.74
49.71
49.22
46.74
42.23
36.46
30.79
26.75
25.44
27.18
31.36
36.88
42.44
47.01
49.94
50.82
49.24
44.68
36.49
24.09
7.37
-13.22
-36.52
-60.94
-84.89
-107.15
-127.12
-144.67
-159.86
-172.46
-181.82
-186.86
-186.53
-180.15
-167.65
-149.70
-127.42
-102.10
-75.02
-47.25
-19.72
6.76
31.38
53.47
72.40
87.67
99.02
106.42
110.09
110.54
108.36
104.17
98.73
92.75
86.94
81.84
77.77
74.75
72.37
70.01
66.90
62.49
56.50
49.04
40.44
31.21
21.92
13.03
4.97
-2.05
-7.98
-13.01
-17.39
-21.30
-24.79
-27.63
-29.44
-29.74
-28.26
-24.95
-20.20
-14.62
-8.87
-3.58
0.88
4.31
6.73
8.18
8.75
8.56
7.84
6.91
6.07
5.63
5.78
6.75
8.65
11.62
15.77
21.12
27.67
35.25
43.74
53.07
63.20
74.01
85.15
95.92
105.26
111.99
115.00
113.55
107.28
96.16
80.36
60.19
36.23
9.25
-19.64
-49.37
-79.19
-108.80
-138.28
-167.45
-195.53
-220.92
-241.49
-255.08
-260.09
-255.77
-242.35
-220.84
-192.79
-159.98
-124.20
-87.01
-49.61
-12.97
22.03
54.41
83.03
106.73
124.51
135.88
140.79
139.62
133.11
122.23
108.23
92.45
76.27
60.87
47.18
35.76
26.77
19.99
14.86
10.67
6.64
2.35
-2.14
-6.16
-8.63
-8.43
-4.76
2.60
13.24
26.24
40.37
54.16
65.95
73.88
76.24
72.01
61.34
45.69
27.50
9.41
-6.48
-19.24
-28.88
-35.87
-40.55
-42.89
-42.78
-40.33
-36.17
-31.31
-26.75
-22.99
-19.94
-17.07
-13.93
-10.43
-6.91
-3.92
-1.85
-0.75
-0.18
0.47
1.72
3.76
6.46
9.47
12.33
14.62
16.07
16.58
16.17
15.01
13.52
12.19
11.53
11.76
12.63
13.48
13.46
11.67
7.53
0.90
-7.92
-18.39
-29.86
-41.73
-53.63
-65.20
-76.23
-86.52
-95.75
-103.49
-109.06
-111.57
-109.94
-103.35
-91.35
-74.37
-53.68
-31.24
-9.40
9.75
24.81
35.28
41.41
43.99
43.89
41.88
38.51
34.12
28.96
23.28
17.29
11.06
4.51
-2.57
-10.32
-18.45
-26.16
-32.18
-35.16
-34.30
-29.69
-22.36
-13.92
-5.97
0.49
5.10
8.08
9.87
10.81
11.17
11.27
11.50
12.31
14.16
17.17
21.20
25.91
30.78
35.34
39.30
42.48
44.80
46.27
46.90
46.71
45.83
44.30
42.21
39.68
36.82
33.80
30.73
27.73
24.79
21.93
19.10
16.36
13.83
11.71
10.27
9.79
10.48
12.30
15.16
18.78
22.95
27.66
32.99
39.17
46.35
54.47
63.07
71.44
78.70
83.93
86.50
85.94
82.39
76.34
68.75
60.84
53.74
48.19
44.30
41.57
38.94
35.42
30.08
22.63
13.25
2.57
-8.53
-19.20
-28.75
-36.92
-43.69
-49.33
-54.24
-58.73
-62.97
-66.95
-70.63
-73.87
-76.69
-79.06
-80.95
-82.32
-82.98
-82.78
-81.49
-79.12
-75.74
-71.57
-66.84
-61.70
-56.22
-50.27
-43.83
-36.87
-29.58
-22.27
-15.28
-8.95
-3.54
0.82
4.17
6.61
8.31
9.39
10.02
10.33
10.43
10.43
10.42
10.56
10.95
11.65
12.63
13.80
14.99
16.00
16.83
17.52
18.23
19.10
20.11
21.14
21.91
22.10
21.42
19.77
17.13
13.57
9.15
3.95
-1.89
-8.11
-14.20
-19.55
-23.52
-25.75
-26.26
-25.38
-23.61
-21.30
-18.63
-15.46
-11.70
-7.39
-2.91
1.30
4.88
7.65
9.68
11.10
11.99
12.26
11.81
10.41
8.05
4.85
1.00
-3.29
-7.79
-12.29
-16.66
-20.70
-24.26
-27.16
-29.16
-30.10
-29.97
-28.91
-27.25
-25.39
-23.63
-22.11
-20.83
-19.62
-18.38
-17.05
-15.59
-13.98
-12.20
-10.26
-8.21
-6.17
-4.23
-2.51
-0.98
0.49
2.11
4.20
6.94
10.29
13.99
17.59
20.51
22.37
22.98
22.41
21.01
19.39
18.18
18.05
19.52
22.80
27.78
34.08
40.91
47.44
52.75
56.00
56.38
53.21
46.01
34.71
19.80
2.29
-16.32
-34.31
-50.15
-62.59
-70.91
-74.93
-74.86
-71.36
-65.31
-57.72
-49.61
-41.93
-35.45
-30.74
-28.09
-27.40
-28.32
-30.22
-32.35
-34.07
-34.79
-34.00
-31.39
-26.85
-20.65
-13.32
-5.42
2.70
11.04
19.85
29.35
39.31
49.00
57.49
64.18
69.15
73.06
76.66
80.37
84.15
87.64
90.65
93.40
96.39
100.02
104.09
107.73
109.59
108.37
103.20
93.87
80.65
64.18
45.31
24.98
4.40
-15.15
-32.44
-46.52
-56.84
-63.33
-66.33
-66.30
-63.90
-59.75
-54.63
-49.40
-44.90
-41.71
-39.96
-39.33
-39.19
-38.95
-38.33
-37.38
-36.33
-35.29
-34.11
-32.29
-29.32
-24.94
-19.33
-13.09
-6.90
-1.20
3.94
8.67
13.15
17.32
20.85
23.38
24.75
25.13
24.97
24.69
24.36
23.67
22.03
18.88
14.05
7.82
0.87
-5.92
-11.67
-15.70
-17.83
-18.46
-18.64
-19.68
-22.70
-28.09
-35.29
-43.06
-50.08
-55.50
-59.33
-62.06
-64.30
-66.28
-67.80
-68.40
-67.81
-66.03
-63.19
-59.31
-54.02
-46.69
-36.79
-24.38
-10.16
4.64
18.72
31.31
42.25
51.95
60.89
69.35
77.05
83.35
87.39
88.31
85.47
78.46
67.36
52.84
36.13
18.89
2.85
-10.49
-20.16
-25.82
-27.69
-26.42
-22.87
-18.10
-13.14
-9.02
-6.57
-6.49
-9.04
-14.19
-21.60
-30.55
-40.17
-49.31
-56.88
-61.79
-63.32
-60.97
-54.68
-44.80
-31.88
-16.67
0.14
17.85
35.82
53.54
70.66
86.83
101.59
114.13
123.38
128.29
128.19
123.24
114.41
103.16
90.79
77.93
64.46
49.85
33.61
15.77
-3.16
-22.39
-41.26
-59.30
-76.16
-91.36
-104.29
-114.32
-121.09
-124.54
-124.89
-122.43
-117.35
-109.96
-100.82
-90.79
-80.88
-71.68
-63.00
-54.05
-44.00
-32.65
-20.80
-9.98
-1.56
3.80
6.34
6.84
5.90
3.72
0.32
-3.90
-8.00
-10.48
-10.04
-6.14
0.67
9.07
17.60
25.14
31.01
34.91
36.85
37.23
36.91
36.91
37.95
40.09
42.51
44.01
43.66
41.43
38.30
35.76
35.15
36.98
40.93
46.07
51.34
55.80
58.75
59.67
58.31
54.72
49.20
42.22
34.23
25.79
17.57
10.43
5.23
2.53
2.25
3.54
4.95
4.93
2.41
-2.80
-10.15
-18.72
-27.70
-36.60
-45.23
-53.42
-60.85
-66.99
-71.23
-73.21
-72.85
-70.54
-66.96
-62.90
-58.97
-55.54
-52.59
-49.89
-47.07
-43.78
-39.88
-35.31
-30.09
-24.12
-17.25
-9.26
-0.11
10.11
21.18
32.78
44.69
56.76
68.98
81.40
93.93
106.30
117.90
127.75
134.47
136.52
132.54
121.65
103.91
80.35
52.70
23.08
-6.52
-34.64
-60.45
-83.67
-104.18
-121.64
-135.34
-144.38
-147.99
-145.95
-138.80
-127.55
-113.41
-97.41
-80.21
-62.33
-44.41
-27.42
-12.59
-1.31
5.27
6.40
1.90
-7.71
-21.19
-36.90
-53.13
-68.34
-81.40
-91.31
-97.16
-98.18
-93.85
-84.33
-70.50
-53.93
-36.31
-18.98
-2.74
11.84
24.02
32.93
37.89
38.99
37.48
35.48
35.24
38.14
44.29
52.45
60.93
68.32
73.86
77.62
79.89
80.81
80.04
77.10
71.59
63.58
53.77
43.22
33.23
24.83
18.59
14.49
12.17
11.10
10.78
10.94
11.39
12.11
12.90
13.48
13.49
12.76
11.31
9.45
7.70
6.45
5.93
6.02
6.44
6.94
7.41
7.87
8.35
8.88
9.37
9.69
9.79
9.61
9.20
8.50
7.52
6.22
4.68
3.03
1.48
0.19
-0.81
-1.61
-2.42
-3.35
-4.47
-5.69
-6.91
-8.07
-9.20
-10.47
-12.01
-13.81
-15.67
-17.23
-18.04
-17.80
-16.43
-14.12
-11.26
-8.20
-5.28
-2.60
-0.19
1.96
3.76
4.98
5.41
4.93
3.62
1.64
-0.74
-3.29
-5.85
-8.33
-10.75
-13.11
-15.39
-17.56
-19.47
-21.01
-22.05
-22.51
-22.54
-22.35
-22.21
-22.37
-22.94
-23.87
-25.07
-26.38
-27.69
-28.83
-29.63
-29.80
-29.00
-26.90
-23.20
-17.81
-10.98
-3.26
4.58
11.77
17.69
21.99
24.65
25.90
26.00
25.21
23.70
21.64
19.32
17.11
15.36
14.32
14.02
14.37
15.19
16.36
17.88
19.82
22.30
25.22
28.27
30.92
32.54
32.64
30.96
27.60
22.86
17.34
11.54
5.99
1.09
-2.85
-5.67
-7.30
-7.81
-7.31
-5.93
-3.67
-0.39
3.96
9.27
15.02
20.35
24.22
25.79
24.70
21.17
15.87
9.62
3.11
-3.18
-8.97
-14.02
-18.22
-21.54
-24.12
-26.39
-28.84
-31.91
-35.66
-39.72
-43.28
-45.30
-44.82
-41.15
-34.08
-23.92
-11.55
1.68
14.18
24.51
31.79
35.99
37.82
38.60
39.58
41.62
44.79
48.50
51.80
53.72
53.60
51.24
46.84
40.98
34.30
27.40
20.69
14.40
8.69
3.71
-0.23
-2.74
-3.43
-1.99
1.62
7.11
13.82
20.83
27.21
32.22
35.62
37.59
38.66
39.46
40.39
41.51
42.52
42.93
42.24
40.16
36.59
31.57
25.28
18.02
10.22
2.52
-4.36
-9.71
-13.06
-14.28
-13.61
-11.53
-8.67
-5.56
-2.65
-0.37
0.95
0.86
-1.05
-5.09
-11.26
-19.14
-27.83
-36.20
-43.13
-47.81
-49.95
-49.61
-47.09
-42.74
-36.90
-29.92
-22.23
-14.31
-6.64
0.33
6.30
11.07
14.53
16.57
17.26
16.70
15.04
12.56
9.44
5.92
2.30
-1.07
-3.80
-5.58
-6.21
-5.81
-4.57
-2.91
-1.27
0.01
0.58
0.15
-1.53
-4.59
-8.97
-14.31
-20.09
-25.67
-30.47
-34.03
-35.91
-35.79
-33.37
-28.52
-21.51
-13.05
-4.21
3.88
10.27
14.47
16.37
16.13
14.06
10.65
6.61
2.95
0.94
1.78
6.18
14.13
24.66
36.22
47.12
55.96
61.84
64.62
64.57
62.26
58.23
52.76
45.84
37.29
26.79
13.96
-1.51
-19.88
-41.20
-65.41
-92.06
-120.13
-147.97
-173.47
-194.57
-209.63
-217.57
-217.65
-209.14
-191.20
-163.40
-126.52
-83.14
-37.67
4.75
39.61
64.53
79.68
87.24
90.24
91.29
91.86
92.28
92.26
91.30
89.15
85.91
81.69
76.51
70.12
62.27
52.91
42.53
32.03
22.43
14.57
8.77
4.79
2.10
0.25
-0.91
-1.21
-0.36
1.79
5.26
9.84
15.25
21.09
27.04
32.85
38.27
43.03
46.71
48.84
48.93
46.71
42.23
36.03
29.01
22.26
16.86
13.60
13.04
15.40
20.51
27.80
36.25
44.54
51.31
55.53
56.60
54.51
49.61
42.38
33.31
22.74
10.88
-2.20
-16.36
-31.44
-47.04
-62.41
-76.58
-88.54
-97.60
-103.69
-107.36
-109.31
-110.10
-109.76
-107.73
-103.25
-95.54
-84.09
-68.72
-49.47
-26.53
-0.51
27.49
55.77
82.19
104.64
121.32
130.92
132.79
126.82
113.44
93.75
69.46
42.76
16.03
-8.61
-29.61
-45.98
-57.28
-63.38
-64.43
-60.86
-53.67
-44.15
-33.81
-24.02
-15.61
-8.99
-4.24
-1.39
-0.50
-1.50
-3.94
-6.90
-9.27
-10.17
-9.43
-7.72
-6.30
-6.40
-8.70
-13.11
-19.03
-25.77
-32.93
-40.36
-48.03
-55.69
-62.87
-68.94
-73.18
-74.86
-73.37
-68.21
-59.16
-46.43
-30.60
-12.66
6.08
24.16
40.30
53.39
62.67
67.98
69.82
69.19
67.35
65.17
62.90
60.33
56.95
52.44
46.89
40.81
34.81
29.46
24.98
21.38
18.65
16.84
16.10
16.49
17.81
19.48
20.84
21.25
20.35
18.18
15.03
11.32
7.50
3.74
0.10
-3.40
-6.74
-9.83
-12.51
-14.66
-16.16
-16.77
-16.31
-14.56
-11.49
-7.27
-2.30
2.93
7.92
12.30
15.82
18.27
19.49
19.33
17.77
14.88
11.03
6.69
2.39
-1.42
-4.44
-6.50
-7.56
-7.70
-7.14
-6.11
-4.92
-3.88
-3.35
-3.72
-5.25
-7.99
-11.78
-16.20
-20.73
-24.86
-28.19
-30.49
-31.70
-31.84
-30.94
-29.06
-26.23
-22.41
-17.44
-11.11
-3.18
6.28
16.85
27.69
37.68
45.65
50.69
52.32
50.54
45.73
38.43
29.25
18.76
7.47
-4.15
-15.64
-26.54
-36.37
-44.59
-50.61
-53.86
-53.92
-50.69
-44.50
-36.11
-26.58
-17.02
-8.39
-1.44
3.30
5.53
5.12
2.22
-2.83
-9.45
-16.88
-24.38
-31.28
-37.01
-41.10
-43.19
-42.89
-40.03
-34.59
-26.82
-17.27
-6.73
3.86
13.56
21.58
27.46
31.04
32.50
32.19
30.57
28.06
24.97
21.50
17.76
13.87
9.89
5.94
2.14
-1.45
-4.72
-7.65
-10.20
-12.44
-14.39
-16.11
-17.54
-18.70
-19.60
-20.23
-20.62
-20.79
-20.75
-20.53
-20.25
-19.91
-19.65
-19.46
-19.12
-18.33
-16.73
-14.09
-10.38
-5.91
-1.07
3.65
7.89
11.42
14.14
15.99
16.95
17.06
16.41
15.22
13.79
12.43
11.45
11.07
11.53
13.00
15.45
18.74
22.52
26.20
29.18
31.02
31.37
30.26
27.92
24.64
20.76
16.46
11.69
6.28
0.03
-7.19
-15.25
-23.82
-32.52
-40.96
-48.79
-55.79
-61.88
-67.20
-72.15
-77.16
-82.41
-87.48
-91.26
-92.16
-88.72
-80.23
-67.20
-51.05
-33.53
-16.10
0.52
16.24
31.22
45.42
58.40
69.41
77.77
83.14
85.60
85.62
83.77
80.48
75.99
70.39
63.80
56.54
49.10
42.05
35.79
30.46
25.88
21.76
17.91
14.31
11.17
8.64
6.74
5.24
3.74
1.81
-0.77
-4.00
-7.63
-11.31
-14.81
-18.06
-21.12
-24.09
-26.92
-29.36
-30.98
-31.27
-29.71
-25.92
-19.60
-10.63
0.81
14.11
28.21
41.81
53.65
62.95
69.47
73.43
75.09
74.49
71.43
65.72
57.48
47.33
36.32
25.58
15.96
7.90
1.49
-3.27
-6.43
-7.98
-8.10
-7.18
-5.84
-4.68
-4.11
-4.25
-5.02
-6.37
-8.32
-11.17
-15.32
-21.14
-28.81
-38.31
-49.32
-61.26
-73.16
-83.61
-90.99
-93.85
-91.35
-83.54
-71.44
-56.58
-40.53
-24.44
-8.94
5.70
19.27
31.52
42.16
51.10
58.61
65.30
71.82
78.66
85.88
93.14
99.92
105.60
109.74
112.07
112.50
110.97
107.54
102.27
95.38
87.11
77.87
68.04
58.02
48.11
38.44
29.02
19.76
10.60
1.49
-7.46
-16.06
-24.01
-30.98
-36.75
-41.21
-44.46
-46.81
-48.72
-50.64
-52.93
-55.77
-59.13
-62.89
-66.89
-70.99
-75.12
-79.21
-83.06
-86.26
-88.35
-88.74
-87.11
-83.42
-77.96
-71.18
-63.41
-54.72
-44.76
-33.02
-18.85
-1.84
18.17
40.90
65.61
91.18
116.04
138.26
155.74
166.74
170.10
165.61
153.94
136.33
114.41
89.82
64.20
39.10
16.15
-3.16
-17.69
-26.83
-30.70
-30.08
-26.26
-20.73
-15.11
-11.03
-10.01
-13.39
-22.00
-36.05
-54.91
-77.17
-100.82
-123.56
-143.45
-159.22
-170.46
-177.47
-181.01
-181.85
-180.54
-177.27
-171.87
-164.15
-154.14
-142.20
-129.03
-115.54
-102.52
-90.41
-79.20
-68.51
-57.87
-47.01
-36.02
-25.32
-15.50
-7.06
-0.26
4.84
8.29
10.09
10.14
8.35
4.68
-0.66
-7.05
-13.53
-18.85
-21.70
-21.10
-16.49
-8.02
3.64
17.53
32.68
48.26
63.57
77.89
90.42
100.38
107.11
110.17
109.47
105.10
97.27
86.37
73.05
58.32
43.55
30.29
19.88
13.32
11.05
13.01
18.82
27.87
39.28
51.98
64.73
76.28
85.70
92.48
96.51
97.91
96.67
92.58
85.17
74.08
59.28
41.38
21.50
0.98
-18.80
-36.78
-52.22
-64.70
-74.14
-80.69
-84.70
-86.65
-86.85
-85.34
-81.94
-76.35
-68.41
-58.28
-46.31
-32.93
-18.55
-3.36
12.42
28.31
43.57
57.19
68.27
76.37
81.68
84.87
86.71
87.48
86.57
82.36
72.69
55.62
30.29
-2.45
-40.02
-78.54
-113.76
-141.80
-159.95
-166.92
-163.02
-149.98
-130.71
-108.96
-88.56
-72.68
-63.02
-59.36
-59.73
-61.17
-60.75
-56.48
-47.79
-35.37
-20.75
-5.68
8.36
20.35
29.79
36.59
41.09
43.93
45.83
47.47
49.25
51.30
53.56
55.84
57.95
59.70
60.87
61.31
60.90
59.65
57.61
54.86
51.25
46.55
40.39
32.33
22.19
10.24
-2.81
-15.77
-27.29
-36.23
-41.85
-44.01
-43.02
-39.43
-33.76
-26.55
-18.29
-9.55
-1.07
6.32
11.89
15.13
15.98
14.77
12.03
8.36
4.14
-0.53
-5.67
-11.30
-17.20
-22.79
-27.39
-30.40
-31.51
-30.84
-28.84
-26.00
-22.80
-19.58
-16.58
-13.93
-11.76
-10.09
-8.95
-8.27
-7.86
-7.56
-7.19
-6.74
-6.26
-5.91
-5.79
-5.99
-6.39
-6.70
-6.65
-6.05
-4.88
-3.39
-1.85
-0.48
0.61
1.47
2.19
2.75
3.08
3.11
2.77
2.10
1.24
0.43
-0.08
0.06
1.13
3.45
7.09
11.93
17.51
23.19
28.35
32.43
35.12
36.32
36.10
34.68
32.35
29.49
26.52
23.82
21.70
20.28
19.53
19.33
19.59
20.19
20.97
21.68
21.98
21.54
20.17
17.88
14.92
11.64
8.49
5.70
3.35
1.36
-0.41
-2.07
-3.75
-5.57
-7.61
-9.76
-11.76
-13.11
-13.29
-11.87
-8.73
-4.14
1.28
6.76
11.61
15.41
18.11
19.84
20.84
21.25
21.18
20.64
19.72
18.45
17.05
15.71
14.57
13.63
12.77
11.84
10.76
9.52
8.15
6.73
5.32
3.95
2.58
1.16
-0.27
-1.68
-3.03
-4.32
-5.62
-7.01
-8.54
-10.14
-11.72
-12.99
-13.64
-13.31
-11.69
-8.67
-4.37
0.81
6.37
11.62
16.04
19.23
21.03
21.52
20.92
19.52
17.60
15.52
13.48
11.71
10.33
9.35
8.73
8.32
7.95
7.54
7.12
6.79
6.70
6.80
7.01
7.15
7.00
6.46
5.48
4.08
2.32
0.29
-1.95
-4.34
-6.74
-9.06
-11.04
-12.43
-12.83
-11.93
-9.54
-5.81
-1.17
3.81
8.54
12.64
15.94
18.41
19.99
20.64
20.28
18.95
16.92
14.54
12.27
10.44
9.20
8.48
8.05
7.62
7.00
6.12
5.03
3.85
2.64
1.38
0.01
-1.56
-3.34
-5.27
-7.23
-9.08
-10.79
-12.38
-13.87
-15.18
-16.08
-16.29
-15.51
-13.49
-10.32
-6.26
-1.80
2.53
6.33
9.32
11.40
12.56
12.91
12.52
11.57
10.36
9.19
8.34
7.94
7.91
8.05
8.14
8.02
7.70
7.20
6.56
5.72
4.63
3.21
1.55
-0.18
-1.81
-3.17
-4.27
-5.20
-6.13
-7.17
-8.42
-9.89
-11.57
-13.34
-14.95
-16.07
-16.33
-15.40
-13.10
-9.54
-5.09
-0.33
4.15
7.89
10.58
12.13
12.61
12.20
11.16
9.72
8.12
6.61
5.39
4.57
4.22
4.29
4.75
5.46
6.25
6.95
7.37
7.40
6.96
6.15
5.07
3.79
2.43
0.99
-0.51
-2.11
-3.88
-5.86
-8.03
-10.35
-12.71
-14.93
-16.74
-17.79
-17.76
-16.38
-13.54
-9.37
-4.35
0.89
5.59
9.19
11.44
12.42
12.41
11.78
10.80
9.62
8.32
7.02
5.89
5.11
4.84
5.06
5.62
6.31
6.88
7.14
7.00
6.42
5.37
3.97
2.34
0.65
-0.86
-2.02
-2.73
-3.05
-3.09
-3.12
-3.39
-4.10
-5.32
-7.00
-8.95
-10.89
-12.45
-13.19
-12.83
-11.17
-8.28
-4.43
-0.02
4.42
8.38
11.41
13.25
13.78
13.18
11.77
9.96
8.20
6.72
5.65
4.93
4.44
4.03
3.59
3.06
2.38
1.61
0.83
0.13
-0.46
-0.96
-1.50
-2.19
-3.10
-4.27
-5.55
-6.85
-8.09
-9.21
-10.26
-11.27
-12.26
-13.22
-14.12
-14.83
-15.16
-14.83
-13.56
-11.20
-7.81
-3.76
0.39
4.05
6.86
8.65
9.52
9.68
9.36
8.73
7.88
6.94
6.03
5.32
4.92
4.79
4.84
4.86
4.68
4.19
3.39
2.39
1.29
0.17
-0.94
-2.03
-3.07
-3.97
-4.64
-5.06
-5.35
-5.70
-6.37
-7.51
-9.18
-11.23
-13.32
-15.03
-15.93
-15.67
-14.06
-11.16
-7.24
-2.79
1.59
5.35
8.07
9.55
9.85
9.23
8.04
6.66
5.35
4.31
3.59
3.16
3.06
3.29
3.85
4.65
5.58
6.39
6.83
6.69
5.88
4.55
2.87
1.04
-0.79
-2.48
-4.05
-5.49
-6.80
-8.02
-9.11
-10.16
-11.29
-12.59
-14.04
-15.45
-16.45
-16.49
-15.19
-12.34
-8.15
-3.17
1.91
6.38
9.78
11.92
12.88
12.82
12.04
10.77
9.23
7.59
5.93
4.36
3.01
1.99
1.35
1.08
1.05
1.05
0.93
0.56
0.03
-0.56
-1.04
-1.41
-1.71
-2.02
-2.44
-2.93
-3.43
-3.84
-4.18
-4.54
-5.14
-6.17
-7.75
-9.82
-12.08
-14.06
-15.17
-15.00
-13.30
-10.15
-5.90
-1.09
3.67
7.84
10.98
12.87
13.40
12.74
11.21
9.21
7.19
5.47
4.25
3.51
3.15
2.99
2.92
2.88
2.79
2.64
2.38
1.95
1.34
0.54
-0.44
-1.52
-2.64
-3.82
-4.99
-6.13
-7.25
-8.29
-9.28
-10.22
-11.13
-11.97
-12.65
-12.92
-12.57
-11.35
-9.11
-5.91
-2.05
1.98
5.66
8.54
10.39
11.14
10.93
9.98
8.58
6.96
5.38
4.07
3.11
2.57
2.31
2.25
2.30
2.42
2.67
3.03
3.40
3.64
3.65
3.33
2.73
1.86
0.74
-0.66
-2.31
-4.17
-6.08
-7.87
-9.39
-10.64
-11.72
-12.74
-13.69
-14.33
-14.34
-13.40
-11.37
-8.36
-4.82
-1.25
1.82
4.08
5.42
5.96
5.90
5.47
4.85
4.18
3.55
2.99
2.60
2.41
2.47
2.75
3.18
3.61
3.84
3.78
3.40
2.76
1.95
1.09
0.22
-0.62
-1.42
-2.16
-2.87
-3.54
-4.18
-4.77
-5.25
-5.59
-5.84
-6.10
-6.48
-7.08
-7.84
-8.55
-8.87
-8.49
-7.20
-5.07
-2.40
0.40
2.85
4.63
5.55
5.70
5.24
4.46
3.63
2.97
2.64
2.70
3.18
3.98
5.00
6.12
7.12
7.81
7.95
7.43
6.21
4.45
2.41
0.34
-1.50
-3.00
-4.12
-4.90
-5.33
-5.47
-5.42
-5.32
-5.43
-5.93
-7.03
-8.65
-10.63
-12.62
-14.29
-15.35
-15.52
-14.69
-12.76
-9.92
-6.46
-2.86
0.34
2.68
3.89
4.13
3.69
3.03
2.43
2.10
1.99
2.04
2.17
2.33
2.52
2.69
2.83
2.87
2.81
2.64
2.38
2.09
1.67
1.15
0.50
-0.23
-0.97
-1.65
-2.32
-3.05
-3.88
-4.90
-6.02
-7.17
-8.27
-9.20
-9.83
-10.05
-9.61
-8.33
-6.12
-3.03
0.64
4.49
8.10
11.15
13.44
14.91
15.58
15.49
14.78
13.61
12.21
10.96
10.11
9.79
9.93
10.25
10.40
10.13
9.33
8.09
6.66
5.19
3.76
2.35
0.90
-0.65
-2.22
-3.74
-5.12
-6.21
-7.05
-7.68
-8.20
-8.72
-9.42
-10.36
-11.57
-12.93
-14.21
-15.13
-15.37
-14.60
-12.77
-9.99
-6.56
-2.95
0.35
2.99
4.73
5.66
6.00
5.93
5.65
5.29
4.95
4.72
4.68
4.86
5.21
5.61
5.74
5.43
4.65
3.49
2.17
0.87
-0.30
-1.37
-2.35
-3.31
-4.22
-5.02
-5.65
-6.12
-6.44
-6.68
-6.95
-7.25
-7.62
-8.05
-8.52
-8.98
-9.24
-8.95
-7.88
-5.85
-2.92
0.57
4.09
7.08
9.14
10.17
10.39
10.09
9.59
9.07
8.57
8.06
7.51
6.96
6.52
6.29
6.18
6.13
5.96
5.55
4.88
4.04
3.11
2.19
1.25
0.24
-0.83
-1.95
-3.00
-3.82
-4.29
-4.41
-4.32
-4.21
-4.30
-4.75
-5.63
-6.97
-8.64
-10.41
-11.94
-12.82
-12.69
-11.32
-8.77
-5.31
-1.42
2.46
5.97
8.82
10.85
11.92
12.02
11.23
9.82
8.15
6.54
5.23
4.31
3.70
3.32
3.09
2.99
3.02
3.19
3.42
3.64
3.71
3.53
3.01
2.06
0.71
-0.96
-2.78
-4.59
-6.24
-7.71
-8.97
-10.06
-11.07
-11.93
-12.65
-13.05
-13.03
-12.38
-10.92
-8.56
-5.39
-1.77
1.82
4.86
7.09
8.44
9.12
9.44
9.61
9.73
9.70
9.46
8.94
8.24
7.53
6.88
6.33
5.74
5.01
3.97
2.72
1.31
-0.08
-1.26
-2.21
-2.89
-3.41
-3.79
-4.07
-4.27
-4.43
-4.61
-4.95
-5.57
-6.54
-7.95
-9.70
-11.57
-13.23
-14.25
-14.18
-12.71
-9.86
-5.89
-1.33
3.18
7.13
10.14
12.04
12.82
12.59
11.45
9.61
7.34
4.95
2.77
1.00
-0.26
-1.11
-1.63
-1.95
-2.09
-2.00
-1.65
-0.99
-0.12
0.81
1.58
1.97
1.85
1.28
0.42
-0.52
-1.37
-2.13
-2.88
-3.74
-4.81
-6.12
-7.56
-9.02
-10.37
-11.44
-11.95
-11.65
-10.23
-7.57
-3.83
0.62
5.16
9.18
12.28
14.19
14.87
14.48
13.25
11.42
9.25
6.93
4.70
2.84
1.47
0.67
0.37
0.44
0.65
0.78
0.72
0.48
0.20
-0.09
-0.30
-0.50
-0.73
-1.00
-1.30
-1.57
-1.79
-1.96
-2.21
-2.66
-3.38
-4.46
-5.80
-7.29
-8.74
-9.90
-10.43
-10.10
-8.75
-6.49
-3.66
-0.74
1.80
3.71
4.93
5.62
5.98
6.14
6.14
5.90
5.47
4.89
4.36
3.99
3.79
3.68
3.60
3.47
3.35
3.39
3.62
3.96
4.17
3.94
3.07
1.58
-0.40
-2.58
-4.62
-6.37
-7.69
-8.62
-9.21
-9.49
-9.53
-9.39
-9.17
-8.89
-8.57
-8.02
-7.02
-5.35
-2.93
0.05
3.21
6.04
8.12
9.15
9.13
8.22
6.72
4.98
3.33
2.03
1.21
0.92
1.04
1.50
2.13
2.78
3.35
3.70
3.76
3.54
3.09
2.47
1.72
0.86
-0.19
-1.37
-2.63
-3.86
-4.91
-5.73
-6.39
-6.99
-7.65
-8.46
-9.31
-10.01
-10.38
-10.12
-9.07
-7.15
-4.46
-1.27
2.01
4.99
7.31
8.72
9.22
8.88
7.91
6.57
5.09
3.66
2.52
1.74
1.32
1.22
1.33
1.63
2.18
2.89
3.69
4.45
4.97
5.12
4.90
4.31
3.43
2.33
1.00
-0.55
-2.27
-4.05
-5.72
-7.16
-8.33
-9.26
-10.04
-10.79
-11.54
-12.21
-12.60
-12.41
-11.38
-9.38
-6.55
-3.24
0.06
2.91
4.96
6.13
6.57
6.50
6.17
5.73
5.28
4.82
4.38
3.96
3.62
3.41
3.40
3.59
3.90
4.17
4.27
4.14
3.83
3.41
2.93
2.39
1.73
0.92
-0.07
-1.17
-2.34
-3.51
-4.73
-6.04
-7.45
-8.89
-10.29
-11.50
-12.41
-12.91
-12.83
-12.06
-10.56
-8.40
-5.83
-3.21
-0.83
1.04
2.28
2.84
2.78
2.11
0.93
-0.62
-2.28
-3.69
-4.56
-4.74
-4.17
-2.94
-1.24
0.69
2.54
4.10
5.20
5.70
5.57
4.88
3.69
2.07
0.19
-1.82
-3.74
-5.40
-6.69
-7.59
-8.17
-8.58
-8.91
-9.17
-9.28
-9.08
-8.32
-6.83
-4.54
-1.48
2.09
5.81
9.30
12.22
14.36
15.71
16.38
16.49
16.19
15.57
14.66
13.55
12.37
11.30
10.46
9.90
9.53
9.15
8.55
7.61
6.34
4.91
3.46
2.16
1.04
0.10
-0.69
-1.38
-1.93
-2.32
-2.57
-2.83
-3.28
-4.10
-5.36
-6.98
-8.79
-10.56
-11.98
-12.78
-12.77
-11.81
-9.89
-7.24
-4.19
-1.09
1.69
3.92
5.49
6.40
6.70
6.57
6.16
5.70
5.37
5.24
5.27
5.34
5.30
5.04
4.54
3.85
3.10
2.32
1.51
0.68
-0.18
-1.05
-1.88
-2.66
-3.42
-4.13
-4.74
-5.20
-5.51
-5.78
-6.20
-6.95
-8.14
-9.68
-11.31
-12.60
-13.18
-12.80
-11.37
-8.96
-5.76
-2.09
1.69
5.14
7.89
9.74
10.64
10.62
9.86
8.54
6.86
5.02
3.28
1.87
0.93
0.53
0.54
0.79
1.02
1.07
0.90
0.51
0.02
-0.54
-1.14
-1.80
-2.57
-3.46
-4.32
-4.99
-5.31
-5.19
-4.72
-4.17
-3.85
-4.07
-4.94
-6.38
-8.04
-9.49
-10.20
-9.82
-8.26
-5.63
-2.34
1.14
4.29
6.80
8.38
9.08
8.96
8.30
7.44
6.67
6.19
6.04
6.15
6.28
6.30
6.07
5.59
4.92
4.15
3.37
2.62
1.90
1.13
0.22
-0.95
-2.36
-3.93
-5.40
-6.54
-7.26
-7.62
-7.89
-8.38
-9.31
-10.73
-12.36
-13.82
-14.65
-14.48
-13.13
-10.64
-7.26
-3.36
0.58
4.17
7.12
9.29
10.67
11.36
11.44
10.98
10.10
8.95
7.72
6.65
5.90
5.59
5.72
6.19
6.86
7.58
8.21
8.62
8.66
8.20
7.17
5.63
3.67
1.57
-0.43
-2.12
-3.38
-4.23
-4.85
-5.40
-6.07
-7.04
-8.35
-9.99
-11.81
-13.52
-14.66
-14.80
-13.67
-11.22
-7.73
-3.69
0.37
3.98
6.91
9.14
10.75
11.79
12.32
12.30
11.77
10.81
9.58
8.28
7.15
6.26
5.61
5.06
4.45
3.72
2.88
2.07
1.41
0.99
0.78
0.69
0.57
0.29
-0.17
-0.82
-1.62
-2.56
-3.56
-4.66
-5.76
-6.86
-7.94
-8.93
-9.72
-10.17
-10.07
-9.21
-7.56
-5.15
-2.25
0.79
3.61
5.90
7.45
8.22
8.30
7.85
7.13
6.33
5.61
5.05
4.60
4.21
3.87
3.56
3.30
3.16
3.06
2.99
2.92
2.81
2.67
2.52
2.36
2.10
1.67
0.93
-0.11
-1.34
-2.62
-3.75
-4.65
-5.31
-5.85
-6.44
-7.26
-8.35
-9.64
-10.89
-11.71
-11.73
-10.66
-8.45
-5.23
-1.35
2.74
6.56
9.73
12.00
13.23
13.41
12.67
11.24
9.39
7.37
5.41
3.72
2.44
1.60
1.16
0.96
0.88
0.84
0.82
0.90
1.21
1.73
2.31
2.76
2.85
2.50
1.80
0.93
0.01
-0.93
-2.03
-3.42
-5.15
-7.13
-9.16
-10.99
-12.39
-13.23
-13.37
-12.71
-11.08
-8.46
-5.01
-1.05
2.90
6.35
8.94
10.52
11.15
10.97
10.15
8.76
7.01
5.16
3.56
2.51
2.12
2.29
2.66
2.95
2.89
2.51
1.94
1.41
1.03
0.78
0.53
0.14
-0.40
-1.10
-1.90
-2.71
-3.46
-4.09
-4.63
-5.08
-5.53
-6.06
-6.67
-7.37
-8.03
-8.47
-8.50
-7.95
-6.73
-4.88
-2.55
0.06
2.67
5.07
7.09
8.66
9.76
10.39
10.49
9.99
8.91
7.31
5.41
3.48
1.81
0.56
-0.27
-0.75
-1.02
-1.17
-1.27
-1.31
-1.29
-1.28
-1.38
-1.70
-2.24
-2.99
-3.81
-4.60
-5.25
-5.65
-5.79
-5.69
-5.44
-5.18
-5.09
-5.23
-5.58
-5.93
-6.01
-5.56
-4.43
-2.69
-0.58
1.60
3.70
5.58
7.20
8.53
9.37
9.54
8.92
7.58
5.79
4.05
2.66
1.75
1.28
1.02
0.87
0.85
1.13
1.83
3.06
4.69
6.51
8.21
9.50
10.22
10.33
9.95
9.27
8.56
8.03
7.86
8.00
8.28
8.51
8.44
7.99
7.22
6.43
5.95
6.14
7.14
8.78
10.66
12.11
12.52
11.33
8.26
3.20
-3.82
-12.70
-23.20
-34.90
-47.18
-59.16
-69.87
-78.21
-83.07
-83.45
-78.67
-68.48
-53.31
-34.26
-12.96
8.80
29.29
47.20
61.59
71.93
77.97
79.77
77.64
72.26
64.46
55.16
45.20
35.17
25.57
16.65
8.69
1.99
-3.03
-6.10
-7.18
-6.59
-5.04
-3.46
-2.80
-3.84
-6.89
-11.82
-18.11
-24.99
-31.61
-37.16
-41.05
-43.07
-43.44
-42.70
-41.57
-40.61
-40.10
-39.99
-39.90
-39.37
-37.96
-35.38
-31.49
-26.31
-19.78
-11.95
-2.79
7.60
19.02
31.05
43.12
54.41
64.09
71.40
75.82
77.13
75.50
71.45
65.72
59.21
52.78
47.02
42.29
38.56
35.54
32.75
29.72
26.13
21.92
17.38
12.92
9.06
6.17
4.56
4.37
5.71
8.58
12.75
17.73
22.67
26.66
28.75
28.40
25.51
20.48
13.96
6.70
-0.71
-7.92
-14.67
-20.87
-26.41
-31.17
-35.08
-38.10
-40.33
-41.90
-43.00
-43.73
-44.05
-43.83
-42.90
-41.14
-38.51
-35.18
-31.36
-27.44
-23.75
-20.60
-18.12
-16.28
-15.00
-14.18
-13.74
-13.64
-13.82
-14.05
-14.11
-13.74
-12.75
-11.19
-9.28
-7.32
-5.58
-4.23
-3.27
-2.75
-2.64
-2.92
-3.54
-4.39
-5.43
-6.60
-7.85
-9.18
-10.60
-12.11
-13.63
-15.06
-16.24
-16.98
-17.09
-16.41
-14.82
-12.41
-9.34
-5.85
-2.18
1.51
5.19
8.75
12.00
14.68
16.49
17.22
16.82
15.44
13.36
10.89
8.23
5.52
2.80
0.22
-2.01
-3.73
-4.84
-5.36
-5.49
-5.51
-5.67
-6.11
-6.75
-7.48
-8.13
-8.68
-9.17
-9.68
-10.31
-11.12
-12.00
-12.83
-13.45
-13.69
-13.38
-12.52
-11.18
-9.62
-8.15
-7.12
-6.72
-7.04
-8.02
-9.48
-11.26
-13.26
-15.31
-17.27
-18.98
-20.23
-20.89
-20.90
-20.24
-18.93
-17.06
-14.75
-12.15
-9.54
-7.23
-5.43
-4.25
-3.64
-3.45
-3.46
-3.52
-3.59
-3.72
-4.04
-4.67
-5.74
-7.30
-9.30
-11.48
-13.42
-14.60
-14.58
-13.08
-10.25
-6.59
-2.85
0.27
2.39
3.43
3.67
3.41
2.93
2.28
1.44
0.36
-0.86
-2.00
-2.83
-3.15
-2.93
-2.33
-1.68
-1.22
-1.18
-1.64
-2.59
-4.01
-5.77
-7.78
-9.85
-11.86
-13.61
-15.00
-15.99
-16.66
-17.17
-17.56
-17.80
-17.67
-16.77
-14.71
-11.13
-5.98
0.49
7.69
14.86
21.26
26.35
29.84
31.73
32.20
31.50
29.81
27.23
23.80
19.64
15.02
10.31
5.91
2.17
-0.79
-3.01
-4.66
-5.92
-6.89
-7.59
-8.04
-8.32
-8.61
-9.07
-9.76
-10.69
-11.74
-12.81
-13.81
-14.79
-15.78
-16.84
-17.88
-18.60
-18.59
-17.42
-14.80
-10.76
-5.69
-0.11
5.30
10.05
13.91
16.87
19.03
20.53
21.47
21.91
21.96
21.72
21.25
20.65
19.93
19.10
18.12
16.98
15.73
14.34
12.79
10.99
8.98
6.77
4.53
2.43
0.54
-1.12
-2.62
-4.15
-5.82
-7.69
-9.80
-11.96
-13.91
-15.30
-15.64
-14.42
-11.32
-6.32
0.19
7.52
14.89
21.75
27.67
32.61
36.69
39.99
42.53
44.23
45.05
45.14
44.90
44.76
45.20
46.49
48.44
50.59
52.42
53.66
54.59
55.77
57.93
61.55
66.68
72.59
78.06
81.97
83.87
84.40
84.83
86.74
91.24
98.53
107.42
115.83
121.76
124.23
123.67
121.22
118.02
114.41
109.75
102.12
88.79
66.93
34.32
-10.13
-66.35
-132.70
-204.91
-273.11
-324.51
-348.84
-343.34
-313.38
-268.51
-217.95
-168.15
-122.45
-82.27
-48.75
-23.32
-6.79
1.35
3.31
2.05
0.46
0.46
2.71
6.53
10.27
12.45
12.42
10.68
8.29
6.36
5.72
6.63
8.58
10.42
11.08
10.14
8.20
6.52
6.39
8.60
12.92
18.18
22.67
25.08
25.03
23.27
21.30
20.65
22.53
27.49
35.30
44.97
55.10
64.22
71.15
75.70
77.31
75.96
71.81
64.98
55.66
44.18
31.16
17.56
4.40
-7.53
-17.57
-25.49
-31.22
-34.83
-36.37
-35.98
-33.97
-30.75
-26.94
-23.05
-19.58
-16.78
-14.60
-12.69
-10.66
-8.36
-5.83
-3.30
-0.97
1.12
3.22
5.86
9.69
15.20
22.37
30.76
39.63
48.07
55.27
60.64
63.99
65.60
66.02
65.70
65.10
64.53
64.05
63.61
62.85
61.27
58.18
54.56
50.74
47.04
43.67
40.82
38.53
36.54
34.41
31.67
27.95
23.02
17.04
10.51
4.03
-1.93
-7.12
-11.50
-15.15
-18.27
-21.23
-24.39
-27.94
-31.49
-34.10
-34.45
-31.55
-25.32
-17.07
-9.04
-3.62
-2.40
-5.53
-11.98
-19.82
-27.09
-32.22
-34.24
-32.72
-27.77
-19.94
-10.32
-0.42
8.29
14.73
18.40
19.35
18.08
15.20
11.27
6.78
1.96
-3.02
-8.08
-13.23
-18.49
-23.74
-28.73
-33.15
-36.66
-39.23
-41.09
-42.81
-44.93
-47.91
-51.88
-56.62
-61.73
-66.78
-71.48
-75.62
-79.12
-81.87
-83.78
-84.85
-85.14
-84.84
-84.12
-83.07
-81.64
-79.71
-77.27
-74.45
-71.61
-69.12
-67.42
-66.66
-66.80
-67.38
-67.71
-66.81
-63.69
-57.64
-48.40
-36.54
-23.19
-9.82
2.25
12.13
19.61
24.91
28.48
30.73
31.92
32.23
31.81
30.90
29.84
28.94
28.39
28.18
28.13
27.97
27.49
26.65
25.50
24.33
23.30
22.52
21.87
21.11
19.89
18.05
15.66
12.97
10.37
8.13
6.29
4.65
2.88
0.73
-1.85
-4.56
-7.03
-8.87
-9.99
-10.57
-11.04
-11.86
-13.39
-15.78
-18.96
-22.68
-26.34
-29.13
-30.16
-28.56
-23.88
-16.26
-6.46
4.21
14.40
23.10
29.76
34.34
37.12
38.41
38.41
37.23
34.99
31.94
28.58
25.42
22.84
20.99
19.75
18.91
18.27
17.79
17.50
17.47
17.52
17.39
16.68
15.10
12.63
9.53
6.20
3.05
0.31
-1.98
-3.96
-5.84
-7.82
-9.94
-12.22
-14.56
-16.86
-19.02
-20.96
-22.69
-24.27
-25.85
-27.57
-29.59
-31.87
-34.20
-36.12
-36.93
-35.85
-32.31
-26.17
-17.85
-8.33
1.24
9.75
16.40
20.90
23.38
24.16
23.69
22.43
20.87
19.46
18.59
18.55
19.36
20.93
22.97
25.13
27.15
28.99
30.82
33.03
36.13
40.39
45.90
52.32
59.12
65.64
71.58
77.04
82.39
88.08
94.08
99.72
103.68
104.44
100.64
91.40
76.47
55.97
30.46
0.65
-32.36
-67.12
-101.76
-134.10
-161.91
-183.19
-196.46
-200.92
-196.84
-185.33
-168.34
-148.24
-127.24
-106.93
-88.09
-70.70
-54.09
-37.69
-21.17
-4.77
10.60
23.87
34.10
41.06
45.36
48.55
52.50
58.87
68.70
82.09
98.28
115.72
132.44
146.31
155.68
159.71
158.67
153.81
146.72
138.65
129.91
119.98
108.05
93.73
77.37
60.06
43.10
27.36
13.23
0.60
-10.65
-20.38
-28.15
-33.52
-36.28
-36.58
-34.95
-31.89
-27.65
-22.20
-15.33
-7.05
2.05
10.74
17.34
20.19
18.43
12.24
2.79
-8.24
-19.16
-28.87
-36.83
-43.07
-47.84
-51.42
-53.95
-55.49
-56.05
-55.67
-54.47
-52.72
-50.92
-49.74
-49.87
-51.74
-55.39
-60.23
-65.29
-69.40
-71.58
-71.41
-69.01
-65.02
-60.41
-56.09
-52.57
-49.89
-47.55
-44.68
-40.55
-34.82
-28.03
-21.45
-16.64
-14.78
-15.93
-18.76
-20.98
-20.29
-15.14
-5.54
7.20
21.02
33.88
44.29
51.60
55.64
56.42
54.10
48.86
41.15
31.81
21.81
12.15
3.49
-3.96
-10.53
-16.78
-23.33
-30.36
-37.50
-43.95
-48.66
-50.84
-50.30
-47.65
-43.96
-40.59
-38.52
-38.03
-38.83
-40.12
-41.19
-41.63
-41.60
-41.54
-42.11
-43.78
-46.65
-50.49
-54.75
-58.66
-61.38
-62.30
-60.99
-57.55
-52.42
-46.31
-40.05
-34.17
-29.10
-24.95
-21.77
-19.44
-17.82
-16.64
-15.47
-14.02
-11.93
-9.08
-5.45
-1.13
3.87
9.50
15.72
22.44
29.38
36.26
42.61
47.96
51.83
53.88
53.90
51.93
48.29
43.44
38.03
32.58
27.51
22.98
18.87
14.89
10.66
5.95
0.63
-5.14
-10.94
-16.12
-19.88
-21.49
-20.45
-16.74
-10.68
-3.10
4.99
12.57
18.85
23.48
26.33
27.57
27.37
26.04
23.89
21.36
18.92
16.92
15.67
15.09
15.01
15.06
14.95
14.55
13.89
13.14
12.43
11.83
11.24
10.42
9.02
6.83
3.78
0.12
-3.66
-7.16
-10.13
-12.58
-14.75
-17.02
-19.67
-22.85
-26.54
-30.42
-34.03
-36.69
-37.58
-36.03
-31.66
-24.62
-15.64
-5.83
3.69
12.02
18.72
23.76
27.19
29.19
29.91
29.48
28.15
26.23
24.09
22.07
20.47
19.43
18.95
19.01
19.35
19.75
20.03
20.06
19.70
18.89
17.41
15.06
11.70
7.40
2.52
-2.36
-6.71
-10.23
-12.95
-15.23
-17.58
-20.45
-24.00
-28.01
-31.91
-34.94
-36.26
-35.24
-31.53
-25.25
-16.95
-7.47
2.27
11.46
19.51
26.13
31.17
34.70
36.78
37.65
37.50
36.62
35.27
33.60
31.74
29.71
27.59
25.41
23.35
21.42
19.73
18.29
16.95
15.50
13.68
11.37
8.54
5.39
2.23
-0.66
-3.13
-5.25
-7.30
-9.63
-12.60
-16.47
-21.24
-26.62
-31.92
-36.19
-38.32
-37.34
-32.81
-24.96
-14.71
-3.45
7.40
16.77
24.15
29.41
32.83
34.64
35.10
34.49
33.12
31.43
29.89
28.91
28.61
28.86
29.28
29.50
29.30
28.59
27.52
26.29
25.03
23.71
22.15
20.07
17.21
13.57
9.26
4.68
0.25
-3.79
-7.37
-10.62
-13.84
-17.25
-20.93
-24.78
-28.41
-31.40
-33.16
-33.07
-30.52
-25.21
-17.21
-7.12
4.03
15.07
24.87
32.67
38.07
41.08
41.75
40.31
37.10
32.70
27.83
23.27
19.59
17.04
15.53
14.62
13.91
13.09
11.99
10.65
9.13
7.43
5.49
3.20
0.48
-2.63
-5.95
-9.20
-12.03
-14.26
-16.01
-17.50
-19.05
-20.94
-23.28
-26.02
-29.06
-32.05
-34.62
-36.22
-36.20
-33.91
-29.01
-21.65
-12.55
-2.83
6.41
14.21
20.12
24.10
26.35
27.13
26.68
25.20
22.94
20.39
17.98
16.15
15.15
14.79
14.71
14.52
13.91
12.80
11.43
9.99
8.64
7.37
5.96
4.17
1.98
-0.54
-3.16
-5.63
-7.85
-9.79
-11.59
-13.39
-15.30
-17.33
-19.48
-21.57
-23.30
-24.23
-23.72
-21.20
-16.41
-9.51
-1.25
7.19
14.64
20.30
23.86
25.55
25.82
25.03
23.41
21.09
18.17
14.98
11.99
9.62
8.16
7.59
7.71
8.25
8.93
9.60
10.17
10.63
10.88
10.80
10.18
8.84
6.69
3.75
0.16
-3.82
-7.87
-11.69
-14.96
-17.59
-19.57
-21.05
-22.25
-23.37
-24.39
-25.05
-24.85
-23.19
-19.80
-14.75
-8.49
-1.76
4.74
10.50
15.21
18.73
21.03
22.00
21.63
20.03
17.49
14.51
11.66
9.43
8.05
7.62
7.91
8.69
9.55
10.14
10.29
9.86
8.92
7.53
5.81
3.75
1.38
-1.35
-4.37
-7.38
-10.05
-12.08
-13.44
-14.31
-15.13
-16.33
-18.16
-20.65
-23.40
-25.87
-27.37
-27.28
-25.09
-20.69
-14.26
-6.44
1.86
9.69
16.24
21.07
24.01
25.22
25.04
23.82
21.91
19.59
17.11
14.65
12.43
10.63
9.34
8.60
8.30
8.23
8.16
7.89
7.23
6.13
4.51
2.32
-0.44
-3.73
-7.32
-10.95
-14.24
-16.92
-18.85
-20.08
-20.86
-21.54
-22.47
-23.77
-25.40
-26.93
-27.72
-27.09
-24.48
-19.74
-13.18
-5.54
2.24
9.26
14.92
18.91
21.22
21.98
21.38
19.69
17.20
14.32
11.53
9.27
7.80
7.17
7.21
7.66
8.31
8.97
9.58
10.11
10.58
10.87
10.93
10.60
9.71
8.17
6.00
3.28
0.22
-2.89
-5.94
-8.85
-11.75
-14.80
-18.11
-21.63
-25.18
-28.39
-30.85
-32.08
-31.60
-29.09
-24.39
-17.69
-9.55
-0.83
7.45
14.36
19.31
22.16
23.09
22.57
21.11
19.17
17.05
14.99
13.09
11.48
10.25
9.39
8.82
8.43
8.09
7.68
7.17
6.54
5.78
4.81
3.51
1.72
-0.60
-3.37
-6.32
-9.19
-11.65
-13.54
-14.87
-15.85
-16.81
-18.07
-19.87
-22.12
-24.54
-26.55
-27.43
-26.55
-23.52
-18.32
-11.42
-3.51
4.60
12.05
18.18
22.57
25.07
25.76
24.93
22.90
20.10
16.98
13.91
11.29
9.37
8.24
7.82
7.88
8.16
8.45
8.69
8.82
8.86
8.66
8.00
6.65
4.53
1.77
-1.35
-4.51
-7.52
-10.19
-12.61
-14.92
-17.29
-19.80
-22.58
-25.65
-28.89
-32.02
-34.39
-35.31
-34.05
-30.24
-24.02
-16.08
-7.46
0.83
7.99
13.70
17.94
20.94
22.92
23.92
24.01
23.33
22.25
21.13
20.26
19.70
19.29
18.74
17.76
16.31
14.57
12.94
11.58
10.49
9.40
7.91
5.73
2.78
-0.62
-4.05
-7.06
-9.41
-10.97
-11.85
-12.21
-12.27
-12.30
-12.56
-13.38
-14.96
-17.30
-19.93
-22.16
-23.13
-22.13
-18.85
-13.50
-6.77
0.52
7.52
13.59
18.36
21.57
23.21
23.35
22.29
20.41
18.33
16.52
15.28
14.67
14.47
14.41
14.20
13.76
13.02
12.10
11.06
9.91
8.66
7.27
5.69
3.89
1.88
-0.37
-2.75
-5.21
-7.66
-9.97
-12.13
-14.10
-15.86
-17.43
-18.87
-20.25
-21.61
-22.86
-23.63
-23.49
-21.94
-18.66
-13.75
-7.67
-1.09
5.20
10.58
14.70
17.38
18.71
18.81
17.82
15.97
13.58
11.01
8.70
6.99
6.05
5.84
6.15
6.56
6.74
6.46
5.71
4.65
3.50
2.47
1.55
0.69
-0.37
-1.78
-3.57
-5.72
-8.03
-10.37
-12.57
-14.58
-16.37
-17.99
-19.52
-21.11
-22.81
-24.53
-25.94
-26.51
-25.59
-22.77
-18.00
-11.67
-4.52
2.69
9.31
14.92
19.33
22.53
24.44
25.06
24.41
22.70
20.33
17.76
15.38
13.48
12.11
11.08
10.17
9.09
7.81
6.42
5.09
3.96
3.15
2.56
1.99
1.18
-0.17
-2.18
-4.81
-7.86
-11.05
-14.12
-16.90
-19.33
-21.48
-23.43
-25.28
-26.93
-28.17
-28.54
-27.56
-24.85
-20.16
-13.62
-5.83
2.33
9.95
16.22
20.87
23.88
25.49
26.01
25.72
24.71
23.07
20.98
18.69
16.55
14.85
13.75
13.28
13.33
13.70
14.19
14.69
15.13
15.53
15.90
16.24
16.50
16.57
16.40
16.06
15.82
15.97
16.84
18.62
21.22
24.31
27.30
29.66
31.04
31.43
31.11
30.56
30.35
30.90
32.47
35.03
38.21
41.24
42.95
42.04
37.30
28.20
14.94
-1.41
-19.32
-37.33
-54.41
-70.05
-84.16
-96.76
-107.68
-116.54
-122.66
-125.35
-124.17
-118.86
-109.34
-95.60
-77.77
-56.19
-31.75
-5.98
19.13
41.39
59.21
71.84
79.53
83.19
83.94
82.53
79.18
73.85
66.29
56.71
45.67
34.20
23.50
14.75
8.77
5.80
5.53
7.09
9.39
11.26
11.83
10.68
7.82
3.51
-1.83
-7.87
-14.34
-20.92
-27.32
-33.22
-38.32
-42.50
-45.85
-48.52
-50.76
-52.79
-54.75
-56.71
-58.70
-60.64
-62.40
-63.82
-64.73
-64.87
-64.14
-62.45
-59.75
-56.10
-51.60
-46.42
-40.97
-35.69
-30.96
-27.04
-23.86
-21.11
-18.23
-14.58
-9.64
-3.24
4.43
12.84
21.16
28.61
34.55
38.58
40.61
40.87
39.69
37.50
34.81
31.96
29.26
26.91
24.92
23.28
21.94
20.82
19.84
18.95
18.05
17.05
15.89
14.43
12.59
10.31
7.60
4.47
1.00
-2.70
-6.43
-10.04
-13.46
-16.73
-19.92
-23.22
-26.66
-30.11
-33.20
-35.30
-35.66
-33.79
-29.50
-23.08
-15.25
-6.88
1.15
8.16
13.76
17.83
20.30
21.27
20.94
19.62
17.75
15.80
14.08
12.71
11.63
10.60
9.47
8.31
7.24
6.53
6.25
6.30
6.34
5.99
4.90
2.99
0.38
-2.65
-5.79
-8.80
-11.55
-14.00
-16.19
-18.25
-20.33
-22.60
-25.16
-27.86
-30.20
-31.46
-30.83
-27.72
-22.05
-14.31
-5.37
3.71
12.03
18.93
24.08
27.42
29.07
29.27
28.23
26.28
23.75
21.06
18.59
16.71
15.60
15.21
15.34
15.60
15.64
15.23
14.33
12.94
11.12
8.90
6.28
3.32
0.17
-2.96
-5.79
-8.11
-9.87
-11.22
-12.44
-13.92
-15.93
-18.53
-21.50
-24.27
-26.12
-26.25
-24.07
-19.37
-12.44
-3.99
4.95
13.34
20.43
25.79
29.38
31.37
32.02
31.48
29.91
27.49
24.50
21.38
18.53
16.32
14.83
13.88
13.08
12.14
10.93
9.58
8.43
7.70
7.47
7.46
7.26
6.50
5.06
3.06
0.77
-1.47
-3.61
-5.61
-7.67
-10.02
-12.75
-15.85
-19.22
-22.59
-25.39
-26.93
-26.46
-23.41
-17.65
-9.64
-0.28
9.15
17.42
23.64
27.40
28.75
28.11
26.14
23.38
20.32
17.32
14.64
12.48
11.04
10.36
10.34
10.71
11.09
11.14
10.71
9.90
8.83
7.74
6.64
5.43
3.92
1.88
-0.74
-3.81
-7.04
-10.06
-12.54
-14.34
-15.60
-16.61
-17.89
-19.81
-22.53
-25.76
-28.67
-30.30
-29.73
-26.48
-20.60
-12.86
-4.26
4.14
11.52
17.55
22.11
25.22
26.91
27.28
26.41
24.60
22.28
19.95
18.05
16.73
15.96
15.54
15.28
15.06
14.83
14.60
14.29
13.80
12.94
11.58
9.58
6.91
3.64
-0.03
-3.85
-7.54
-10.80
-13.45
-15.40
-16.72
-17.64
-18.46
-19.47
-20.91
-22.78
-24.80
-26.38
-26.75
-25.24
-21.55
-15.88
-8.92
-1.55
5.36
11.24
15.89
19.31
21.59
22.82
23.08
22.49
21.23
19.55
17.77
16.16
15.00
14.39
14.31
14.59
14.99
15.23
15.13
14.65
13.76
12.53
10.87
8.73
6.01
2.79
-0.71
-4.22
-7.43
-10.17
-12.38
-14.15
-15.53
-16.61
-17.44
-18.13
-18.86
-19.79
-20.97
-22.25
-23.16
-23.10
-21.46
-17.94
-12.64
-6.11
0.84
7.40
12.96
17.14
19.82
21.15
21.27
20.48
18.97
16.99
14.80
12.66
10.81
9.42
8.58
8.13
7.90
7.56
6.89
5.80
4.47
3.18
2.18
1.59
1.27
1.04
0.63
-0.05
-0.93
-1.85
-2.67
-3.35
-4.03
-4.94
-6.22
-7.97
-10.14
-12.66
-15.54
-18.75
-22.20
-25.44
-27.87
-28.67
-27.21
-23.27
-17.19
-9.90
-2.41
4.35
9.85
13.91
16.68
18.28
18.85
18.46
17.09
14.97
12.39
9.82
7.72
6.47
6.20
6.80
7.92
9.11
10.05
10.50
10.47
10.02
9.28
8.23
6.77
4.77
2.15
-0.95
-4.29
-7.52
-10.36
-12.67
-14.50
-15.95
-17.22
-18.37
-19.45
-20.54
-21.66
-22.72
-23.47
-23.49
-22.19
-19.20
-14.39
-8.13
-1.19
5.53
11.21
15.37
17.97
19.23
19.56
19.17
18.23
16.75
14.75
12.44
10.18
8.40
7.41
7.26
7.68
8.28
8.71
8.74
8.41
7.90
7.36
6.79
6.00
4.72
2.82
0.29
-2.64
-5.63
-8.34
-10.58
-12.36
-13.83
-15.23
-16.74
-18.46
-20.42
-22.53
-24.70
-26.72
-28.20
-28.66
-27.55
-24.44
-19.24
-12.41
-4.75
2.70
8.98
13.57
16.35
17.54
17.50
16.63
15.15
13.32
11.36
9.54
8.15
7.30
6.99
6.98
7.09
7.05
6.75
6.14
5.26
4.21
3.05
1.87
0.71
-0.38
-1.37
-2.28
-3.10
-3.87
-4.58
-5.30
-6.05
-6.93
-7.99
-9.35
-11.09
-13.25
-15.77
-18.48
-21.04
-22.96
-23.75
-22.99
-20.47
-16.34
-10.93
-4.88
1.20
6.75
11.43
15.05
17.52
18.95
19.44
19.18
18.30
16.95
15.31
13.56
11.80
10.17
8.78
7.70
6.98
6.61
6.50
6.60
6.83
7.04
7.09
6.80
6.00
4.54
2.45
-0.23
-3.22
-6.25
-9.05
-11.42
-13.36
-15.02
-16.62
-18.30
-20.13
-21.99
-23.61
-24.49
-24.11
-22.08
-18.28
-12.96
-6.69
-0.25
5.61
10.39
13.88
16.17
17.38
17.61
16.94
15.50
13.54
11.43
9.57
8.25
7.61
7.52
7.80
8.15
8.36
8.29
7.91
7.27
6.40
5.36
4.10
2.58
0.70
-1.49
-3.90
-6.27
-8.30
-9.78
-10.66
-11.13
-11.55
-12.29
-13.63
-15.63
-18.17
-20.92
-23.43
-25.20
-25.74
-24.67
-21.78
-17.16
-11.20
-4.58
1.99
7.84
12.64
16.26
18.75
20.21
20.63
20.10
18.69
16.78
14.75
13.10
12.04
11.52
11.28
10.93
10.26
9.16
7.79
6.31
4.90
3.60
2.33
1.02
-0.44
-2.06
-3.80
-5.54
-7.21
-8.67
-9.93
-11.10
-12.33
-13.87
-15.88
-18.41
-21.27
-24.09
-26.34
-27.46
-27.07
-24.90
-21.01
-15.67
-9.38
-2.73
3.62
9.16
13.52
16.49
18.15
18.57
18.00
16.66
14.77
12.59
10.39
8.44
6.89
5.84
5.14
4.63
4.16
3.61
3.00
2.44
2.03
1.80
1.63
1.30
0.59
-0.51
-1.90
-3.35
-4.66
-5.76
-6.74
-7.80
-9.16
-10.88
-12.90
-15.06
-17.04
-18.50
-19.09
-18.43
-16.28
-12.70
-7.96
-2.64
2.55
7.07
10.66
13.22
14.88
15.74
15.81
15.12
13.72
11.89
10.00
8.54
7.71
7.56
7.83
8.19
8.35
8.05
7.33
6.26
5.03
3.80
2.63
1.46
0.16
-1.28
-2.92
-4.65
-6.43
-8.19
-9.94
-11.62
-13.27
-14.99
-16.80
-18.72
-20.61
-22.21
-23.04
-22.58
-20.40
-16.37
-10.82
-4.33
2.25
8.28
13.19
16.69
18.78
19.57
19.30
18.22
16.66
14.82
13.05
11.55
10.46
9.80
9.42
9.15
8.76
8.06
6.99
5.66
4.26
2.92
1.80
0.76
-0.24
-1.34
-2.52
-3.75
-4.85
-5.70
-6.34
-6.89
-7.79
-9.28
-11.55
-14.48
-17.76
-20.83
-23.06
-23.94
-23.02
-20.26
-15.84
-10.26
-4.19
1.67
6.81
10.97
14.14
16.55
18.26
19.32
19.66
19.25
18.22
16.86
15.50
14.43
13.80
13.47
13.19
12.71
11.83
10.57
9.00
7.27
5.50
3.73
1.86
-0.24
-2.58
-5.12
-7.61
-9.85
-11.67
-13.14
-14.44
-15.83
-17.52
-19.52
-21.81
-24.07
-26.01
-27.21
-27.24
-25.75
-22.56
-17.76
-11.76
-5.27
1.11
6.77
11.43
15.03
17.63
19.31
20.08
19.94
18.91
17.25
15.27
13.36
11.83
10.81
10.20
9.75
9.22
8.44
7.42
6.22
4.97
3.79
2.61
1.40
0.07
-1.29
-2.46
-3.22
-3.49
-3.41
-3.34
-3.80
-5.13
-7.51
-10.72
-14.27
-17.46
-19.60
-20.10
-18.63
-15.28
-10.32
-4.43
1.73
7.56
12.63
16.65
19.47
20.96
21.07
19.95
17.83
15.10
12.22
9.62
7.63
6.33
5.62
5.24
4.97
4.68
4.37
4.17
4.18
4.48
4.90
5.19
5.04
4.21
2.72
0.78
-1.34
-3.40
-5.28
-6.98
-8.60
-10.25
-11.93
-13.57
-15.06
-16.22
-16.87
-16.68
-15.24
-12.18
-7.33
-0.78
7.00
15.26
23.26
30.35
36.17
40.60
43.66
45.43
46.09
45.90
45.22
44.54
44.44
45.37
47.48
50.54
53.81
56.17
56.27
53.00
45.68
34.26
19.26
1.52
-17.99
-38.29
-58.49
-77.60
-94.42
-107.75
-116.48
-119.97
-118.31
-112.45
-103.93
-94.58
-85.94
-78.91
-73.68
-69.70
-66.05
-61.72
-55.86
-47.81
-37.36
-24.48
-9.57
6.78
23.84
41.10
58.02
74.33
89.86
104.32
117.49
129.13
139.11
147.59
154.65
160.14
163.71
164.74
162.76
157.66
149.80
139.61
127.46
113.35
97.02
78.43
57.95
36.68
16.11
-2.26
-17.49
-29.35
-38.28
-45.10
-50.66
-55.59
-60.13
-64.06
-66.95
-68.44
-68.30
-66.62
-63.67
-59.77
-55.20
-50.00
-44.21
-38.03
-31.88
-26.37
-21.94
-18.68
-16.23
-14.06
-11.74
-9.20
-7.01
-6.06
-7.45
-11.95
-19.83
-30.73
-43.79
-57.99
-72.20
-85.61
-97.85
-109.11
-120.17
-132.14
-145.77
-161.02
-176.64
-190.29
-199.39
-202.02
-197.90
-188.47
-176.44
-164.60
-154.77
-147.15
-140.36
-132.15
-120.29
-103.65
-82.51
-58.32
-33.16
-8.90
13.18
32.40
48.45
60.88
69.23
73.14
72.96
69.98
66.17
63.42
62.88
64.64
67.83
71.52
75.16
79.00
83.69
89.60
96.38
102.81
107.40
108.80
106.59
101.26
94.31
87.72
83.33
82.33
84.71
89.41
94.40
97.37
96.38
90.26
79.07
63.60
45.30
25.89
7.25
-8.84
-20.85
-27.84
-29.87
-27.67
-22.73
-16.62
-10.63
-5.59
-1.90
0.39
1.39
1.03
-0.59
-3.37
-6.90
-10.54
-13.50
-14.91
-13.79
-9.29
-1.34
9.41
21.48
32.97
42.06
47.56
49.25
47.81
44.33
39.56
33.71
26.41
17.12
5.59
-7.83
-22.19
-36.07
-48.22
-57.71
-63.86
-66.48
-65.69
-61.85
-55.61
-47.79
-39.15
-30.43
-22.12
-14.29
-6.94
-0.15
6.10
11.60
15.93
18.76
19.79
18.91
16.37
12.52
7.96
3.45
-0.37
-3.32
-5.58
-7.80
-10.77
-14.92
-20.19
-25.84
-30.78
-34.13
-35.67
-35.79
-35.35
-35.35
-36.46
-38.84
-42.24
-45.95
-49.24
-51.43
-51.73
-49.61
-44.62
-36.61
-25.88
-13.26
0.07
12.79
23.92
33.13
40.49
46.38
51.08
54.45
56.16
56.11
54.52
52.15
50.05
49.03
49.55
51.57
54.73
58.59
62.81
67.04
70.77
73.53
74.83
74.60
73.08
70.70
67.91
64.82
61.19
56.49
50.38
42.73
33.86
24.42
15.07
6.56
-0.50
-5.54
-8.42
-9.27
-8.77
-7.96
-7.96
-9.58
-12.94
-17.41
-21.78
-25.07
-26.75
-27.04
-26.76
-26.82
-27.88
-29.82
-32.02
-33.35
-32.81
-29.81
-24.47
-17.46
-9.86
-2.85
2.78
6.54
8.39
8.50
7.24
4.90
1.69
-2.22
-6.83
-12.24
-18.65
-26.04
-34.26
-42.60
-49.93
-54.94
-56.16
-52.84
-44.89
-33.18
-19.11
-4.32
9.66
21.72
31.18
38.07
42.78
46.16
48.99
51.97
55.39
58.97
62.14
64.23
64.84
63.81
61.30
57.26
51.61
44.24
35.29
25.31
14.94
4.91
-4.46
-13.23
-21.74
-30.24
-38.56
-46.17
-52.33
-56.72
-59.53
-61.58
-63.90
-67.23
-71.74
-76.94
-81.85
-85.30
-86.32
-84.38
-79.38
-71.51
-61.27
-49.35
-36.98
-25.54
-16.25
-9.79
-5.92
-3.54
-0.91
3.71
11.45
22.53
36.23
51.31
66.28
79.71
90.34
97.12
99.34
96.92
90.41
81.09
70.61
60.54
51.88
44.91
39.11
33.69
27.94
21.54
14.48
6.97
-0.87
-8.74
-16.44
-23.61
-29.82
-34.51
-37.38
-38.41
-37.90
-36.37
-34.46
-32.63
-31.13
-30.08
-29.22
-28.57
-28.16
-28.15
-28.81
-30.30
-32.50
-35.11
-37.86
-40.39
-42.83
-45.28
-47.96
-51.06
-54.60
-58.48
-62.45
-66.29
-69.67
-72.28
-73.68
-73.40
-71.15
-66.85
-60.76
-53.44
-45.64
-37.73
-29.69
-20.90
-10.45
2.26
17.29
33.81
50.19
64.51
75.36
81.97
84.59
84.16
81.79
78.51
75.01
71.70
68.79
66.52
65.04
64.30
63.99
63.49
61.99
58.68
52.90
44.21
32.63
18.68
3.45
-11.53
-24.63
-34.45
-40.38
-42.64
-42.13
-40.04
-37.45
-35.02
-33.02
-31.40
-29.41
-25.78
-18.78
-6.73
11.10
33.75
58.46
81.37
98.75
108.44
110.55
107.13
101.36
96.20
93.44
93.34
94.88
96.17
95.15
90.21
80.43
66.03
48.17
28.73
9.84
-6.63
-19.54
-28.72
-34.89
-39.45
-43.90
-49.68
-57.61
-67.82
-79.82
-92.59
-104.93
-115.72
-124.19
-129.81
-132.41
-131.80
-127.56
-119.20
-106.00
-87.50
-63.75
-35.60
-4.47
27.74
59.25
88.81
115.65
139.60
160.66
178.86
193.90
205.26
212.13
213.51
208.46
196.10
175.81
147.19
110.06
64.59
11.28
-48.78
-113.65
-180.40
-245.20
-303.47
-350.65
-382.87
-397.45
-393.64
-372.32
-335.79
-287.37
-230.92
-170.54
-110.42
-54.27
-4.76
36.79
70.78
98.80
122.92
144.63
164.32
181.25
194.01
201.27
202.13
196.49
184.69
167.33
145.35
119.97
93.00
66.60
42.96
23.78
10.05
1.58
-2.75
-4.39
-4.82
-4.91
-5.01
-5.06
-4.90
-4.44
-3.83
-3.34
-3.01
-2.68
-1.76
0.20
3.38
7.28
10.94
13.20
13.31
11.33
8.06
4.90
3.13
3.59
6.31
10.56
15.23
19.24
21.73
22.19
20.41
16.46
10.81
4.18
-2.68
-9.19
-15.45
-22.25
-30.71
-41.60
-54.76
-68.74
-81.19
-89.86
-93.07
-90.66
-83.81
-74.71
-65.83
-59.30
-56.57
-58.00
-63.12
-70.52
-78.51
-85.42
-90.09
-92.20
-92.45
-92.53
-94.82
-101.69
-114.53
-133.02
-154.54
-174.54
-187.59
-189.02
-176.58
-151.40
-117.39
-79.69
-42.65
-8.29
24.07
56.57
91.37
129.04
167.99
205.05
236.63
260.09
274.15
279.30
276.97
269.09
257.76
244.97
232.52
221.78
213.68
208.19
204.37
200.33
193.62
182.04
164.24
140.14
111.00
78.92
46.20
14.89
-13.67
-38.92
-60.74
-79.34
-94.64
-106.27
-113.46
-115.31
-110.99
-100.18
-83.41
-61.94
-37.70
-12.77
10.91
31.88
48.90
61.08
67.76
68.45
63.26
52.99
39.09
23.46
7.96
-6.05
-17.88
-27.42
-35.11
-41.68
-48.01
-55.18
-64.25
-75.99
-90.58
-107.59
-126.09
-145.03
-163.56
-181.32
-198.37
-215.07
-231.60
-247.88
-263.39
-277.21
-288.40
-296.20
-300.29
-301.04
-299.25
-295.78
-291.09
-284.77
-275.25
-260.34
-237.80
-206.35
-166.33
-119.65
-69.37
-19.02
28.24
70.04
104.63
131.06
148.91
158.61
161.54
159.88
156.22
152.92
151.60
152.87
156.79
163.13
171.46
181.29
191.67
201.08
207.76
210.18
207.39
199.36
186.95
171.35
153.98
136.17
118.86
102.61
87.66
73.75
60.54
47.68
35.08
22.99
11.87
2.24
-5.57
-11.27
-14.81
-16.01
-14.82
-11.37
-6.00
0.58
7.68
14.81
21.81
28.76
35.98
43.69
52.05
61.05
70.51
80.02
89.07
96.91
102.67
105.77
105.72
102.23
95.31
84.99
71.49
55.12
36.35
15.72
-6.01
-27.91
-49.06
-68.24
-84.42
-96.79
-105.28
-110.49
-113.66
-116.05
-118.79
-122.39
-126.64
-130.87
-134.17
-135.84
-135.39
-132.69
-127.79
-120.98
-112.48
-102.47
-91.27
-79.14
-66.44
-53.67
-41.46
-30.61
-21.83
-15.65
-12.22
-11.38
-12.66
-15.38
-18.95
-22.92
-27.02
-31.11
-35.01
-38.55
-41.62
-44.14
-46.25
-48.02
-49.51
-50.53
-50.68
-49.30
-45.65
-39.17
-29.57
-17.18
-2.70
12.72
27.95
41.91
53.79
63.19
70.04
74.81
78.28
81.53
85.33
90.08
95.34
100.08
102.93
102.56
98.19
89.51
76.93
61.19
43.40
24.95
7.28
-8.14
-20.06
-27.80
-31.41
-31.49
-29.09
-25.32
-20.92
-16.37
-11.77
-7.03
-2.17
2.65
7.11
10.80
13.25
14.37
14.27
13.51
12.79
12.97
14.55
17.65
21.86
26.48
30.91
34.65
37.52
39.54
40.89
41.69
41.91
41.14
38.93
34.86
28.70
20.62
11.27
1.51
-7.63
-15.18
-20.59
-23.44
-23.64
-21.28
-16.57
-9.92
-2.10
6.07
13.83
20.51
25.71
29.13
30.38
28.96
24.31
15.94
3.94
-11.00
-27.62
-44.42
-59.95
-73.08
-83.27
-90.36
-94.69
-96.84
-97.55
-97.42
-96.59
-94.53
-89.80
-80.37
-64.46
-41.22
-11.49
22.01
55.37
84.54
106.47
119.85
125.28
124.53
119.96
113.65
107.09
100.97
95.49
90.37
85.08
79.08
71.86
63.14
52.97
41.83
30.66
20.68
12.91
8.12
6.61
8.08
12.06
18.01
25.31
33.47
41.97
50.15
57.37
63.11
67.04
69.21
70.08
70.18
70.15
70.42
71.19
72.20
73.04
72.87
70.72
65.70
57.08
44.61
28.45
9.12
-12.85
-37.11
-63.81
-93.25
-125.10
-157.91
-188.71
-213.80
-229.87
-235.05
-229.24
-213.79
-190.62
-161.42
-127.74
-90.84
-51.96
-12.02
28.85
71.22
115.77
162.32
209.21
253.10
290.34
318.29
336.24
345.46
348.15
346.01
339.40
327.26
307.72
279.47
242.77
199.46
152.81
106.34
62.92
23.99
-10.21
-40.56
-68.16
-93.96
-118.68
-142.56
-165.52
-187.16
-206.92
-224.10
-238.01
-247.82
-252.79
-252.43
-246.61
-235.91
-221.44
-204.68
-186.92
-168.96
-150.76
-131.72
-111.46
-89.93
-68.12
-47.78
-31.00
-19.71
-15.24
-18.06
-27.64
-42.89
-62.12
-83.69
-105.92
-127.28
-146.17
-160.85
-169.63
-170.84
-163.63
-148.31
-126.84
-102.17
-77.63
-55.62
-37.01
-21.32
-7.38
5.61
17.69
28.09
36.18
41.95
46.26
50.37
55.17
60.61
65.58
68.58
68.49
65.19
59.61
53.37
47.87
43.57
39.89
35.24
27.63
15.44
-2.23
-25.06
-50.95
-76.36
-97.19
-109.66
-112.06
-105.47
-93.18
-79.46
-67.65
-58.61
-50.92
-42.04
-29.50
-12.43
8.16
29.94
49.94
65.59
75.22
78.25
75.17
67.53
57.20
46.20
36.28
28.71
24.17
22.94
24.93
29.52
35.88
42.92
49.71
55.81
61.13
65.65
69.17
71.10
70.50
66.41
58.32
46.66
33.03
19.63
8.69
1.75
-0.75
0.49
4.00
8.28
12.05
14.65
15.83
15.73
14.29
11.41
6.89
0.64
-7.02
-15.74
-24.94
-34.19
-43.13
-51.62
-59.43
-66.35
-71.96
-75.73
-77.34
-76.81
-74.51
-71.11
-67.24
-63.33
-59.48
-55.51
-51.15
-46.38
-41.46
-36.94
-33.61
-32.04
-32.46
-34.49
-37.29
-39.52
-39.91
-37.55
-32.06
-23.94
-14.24
-4.34
4.52
11.38
16.04
18.70
20.00
20.67
21.25
21.98
22.75
23.15
22.84
21.57
19.36
16.46
13.24
10.06
7.32
5.28
4.16
4.27
5.64
8.30
12.06
16.59
21.47
26.35
30.96
35.09
38.81
42.03
44.55
45.92
45.55
43.03
38.43
32.50
26.35
21.27
18.08
17.08
18.01
20.36
23.94
28.65
34.71
42.17
50.58
58.93
65.86
69.91
69.88
65.37
56.43
43.84
28.87
13.08
-1.83
-14.05
-21.86
-24.13
-20.25
-10.68
3.24
19.48
35.65
49.73
60.33
66.91
69.47
68.31
63.43
54.72
41.98
25.22
5.40
-15.75
-35.84
-52.28
-62.95
-66.80
-63.84
-55.12
-42.48
-27.81
-12.90
0.95
13.09
23.31
31.69
38.30
43.22
46.34
47.71
47.51
46.26
44.70
43.47
42.91
42.96
43.28
43.23
42.45
40.62
37.64
33.65
28.92
23.91
19.09
15.01
11.98
10.13
9.04
7.87
5.79
2.25
-2.65
-8.26
-13.45
-17.16
-18.68
-17.82
-15.07
-11.26
-7.50
-4.86
-4.06
-5.21
-7.67
-10.05
-10.46
-7.27
0.52
12.48
27.10
42.16
55.58
65.93
72.84
76.87
78.76
78.94
77.10
72.50
64.55
53.36
39.72
24.85
9.92
-4.40
-17.79
-30.14
-41.31
-51.05
-59.21
-65.99
-71.84
-76.98
-81.23
-83.73
-83.78
-81.13
-76.37
-70.74
-65.44
-61.24
-58.10
-55.66
-53.15
-50.09
-45.90
-40.03
-31.90
-21.03
-7.35
8.69
25.96
43.09
58.72
71.79
81.69
88.22
91.55
92.11
90.44
87.10
82.72
78.09
74.06
71.36
70.41
71.31
73.58
76.46
79.13
80.90
81.41
80.51
78.27
74.61
69.74
63.84
57.22
50.39
43.85
38.30
34.44
33.09
34.80
39.83
47.74
57.33
66.80
73.93
76.62
73.20
62.92
46.20
24.74
1.15
-21.53
-40.81
-55.57
-66.13
-73.85
-80.11
-85.53
-89.82
-92.53
-93.71
-94.16
-95.03
-96.66
-98.04
-96.98
-91.34
-80.42
-65.52
-49.77
-36.47
-27.91
-24.31
-24.24
-25.60
-26.86
-27.71
-28.93
-31.74
-36.80
-43.84
-51.58
-58.43
-63.32
-66.03
-67.25
-67.83
-68.24
-68.07
-66.42
-62.24
-55.04
-45.19
-33.70
-21.90
-10.84
-1.27
6.55
12.62
17.02
19.90
21.47
22.17
22.41
22.78
23.56
24.85
26.57
28.55
30.58
32.37
33.75
34.30
33.70
31.72
28.32
23.65
17.91
11.24
3.62
-4.81
-13.87
-23.14
-32.26
-40.91
-49.01
-56.54
-63.40
-69.38
-73.83
-75.92
-74.70
-69.45
-59.68
-45.58
-28.22
-9.44
8.12
21.98
30.41
33.06
30.98
26.29
21.30
17.81
16.73
17.75
19.78
21.20
20.51
16.88
10.27
1.51
-7.91
-16.38
-22.66
-26.01
-26.58
-24.90
-21.77
-18.09
-14.81
-12.58
-11.64
-11.79
-12.22
-11.97
-10.22
-6.52
-0.90
5.86
12.80
18.85
23.12
25.31
25.64
24.95
24.35
24.91
27.15
30.92
35.35
39.19
41.33
41.03
38.11
32.86
25.90
18.07
10.28
3.39
-2.06
-5.73
-7.82
-8.75
-9.16
-9.49
-10.11
-11.02
-12.02
-13.04
-13.89
-14.64
-15.28
-15.94
-16.58
-17.41
-18.46
-19.79
-21.44
-23.37
-25.65
-28.20
-30.98
-33.58
-35.74
-36.91
-36.58
-34.34
-29.94
-23.50
-15.33
-5.95
4.10
14.19
23.58
31.62
37.59
41.22
42.51
41.92
40.07
37.62
35.09
32.60
30.28
27.81
25.33
22.68
19.83
16.50
12.54
7.95
3.02
-1.58
-5.43
-7.83
-8.70
-8.42
-7.65
-7.18
-7.60
-9.23
-11.87
-15.33
-19.15
-22.96
-26.55
-29.64
-32.11
-33.88
-34.79
-34.56
-32.93
-29.56
-24.31
-17.35
-9.08
-0.39
7.74
14.44
19.19
21.77
22.37
21.27
18.78
15.40
11.52
7.67
4.53
2.52
1.81
2.21
3.16
3.99
4.26
3.80
2.79
1.65
0.69
0.10
-0.13
-0.33
-0.77
-1.64
-3.04
-4.98
-7.40
-10.34
-13.90
-18.00
-22.75
-27.89
-33.00
-37.53
-41.01
-43.00
-43.35
-42.02
-39.02
-34.51
-28.83
-22.38
-15.77
-9.72
-4.88
-1.77
-0.62
-1.25
-3.14
-5.72
-8.29
-10.41
-11.68
-11.94
-11.15
-9.36
-6.66
-3.18
0.74
4.76
8.38
11.43
13.77
15.35
16.08
15.72
13.84
9.92
3.73
-4.66
-14.57
-24.92
-34.62
-43.10
-50.40
-57.15
-64.07
-71.13
-77.45
-81.34
-80.91
-74.96
-63.49
-47.68
-29.52
-11.06
6.09
20.93
32.92
41.78
47.27
49.37
48.35
44.95
40.35
35.90
32.76
31.45
31.80
33.02
34.23
34.73
34.21
32.66
30.41
27.65
24.46
20.88
16.99
13.07
9.59
6.89
5.04
3.86
2.81
1.28
-1.11
-4.41
-8.40
-12.71
-17.02
-21.17
-24.90
-27.62
-28.60
-26.90
-22.03
-14.18
-4.33
6.10
15.65
23.35
29.14
33.38
36.78
39.59
41.84
43.23
43.48
42.63
40.88
38.70
36.41
34.23
31.95
29.41
26.43
22.86
18.85
14.58
10.30
6.23
2.60
-0.61
-3.50
-6.05
-8.43
-10.52
-12.21
-13.27
-13.62
-13.16
-12.05
-10.63
-9.11
-7.79
-6.66
-5.62
-4.37
-2.59
-0.07
3.19
6.98
11.04
15.00
18.59
21.45
23.27
23.84
23.11
21.13
18.16
14.58
10.77
7.10
3.78
0.96
-1.23
-2.74
-3.69
-4.27
-4.65
-5.04
-5.42
-5.78
-6.13
-6.48
-7.00
-7.88
-9.25
-11.12
-13.41
-15.85
-18.23
-20.38
-22.15
-23.56
-24.62
-25.48
-26.17
-26.87
-27.43
-27.62
-27.11
-25.44
-22.35
-17.80
-12.27
-6.38
-1.08
3.02
5.59
6.61
6.26
4.70
1.97
-2.05
-7.24
-13.21
-19.06
-23.73
-26.28
-26.17
-23.53
-19.02
-13.64
-8.36
-3.92
-0.54
1.86
3.48
4.61
5.24
5.26
4.49
2.94
0.87
-1.19
-2.57
-2.89
-1.90
0.04
2.22
3.64
3.40
0.73
-4.59
-12.11
-20.70
-28.49
-33.63
-34.69
-31.53
-25.64
-19.97
-18.04
-22.63
-34.61
-52.35
-72.47
-90.83
-104.25
-111.37
-112.68
-109.98
-105.12
-99.19
-92.25
-83.56
-72.15
-57.43
-39.46
-18.87
3.25
25.51
46.38
64.16
77.17
84.03
83.86
76.67
63.54
46.31
27.29
8.66
-8.15
-22.55
-34.63
-44.93
-54.00
-62.12
-69.41
-75.71
-80.72
-83.99
-84.76
-82.11
-75.47
-64.85
-50.94
-35.15
-18.76
-2.86
12.07
25.93
38.77
50.19
59.59
66.32
69.96
70.79
69.61
67.52
65.54
64.30
63.73
63.34
62.50
60.59
57.42
53.12
47.94
42.23
36.19
30.01
23.82
17.78
11.94
6.35
1.03
-4.08
-8.81
-13.02
-16.55
-19.31
-21.46
-23.23
-24.95
-26.81
-28.93
-31.09
-32.88
-33.71
-32.83
-29.56
-23.42
-14.30
-2.49
11.22
25.74
39.88
52.62
63.26
71.46
77.01
79.96
80.49
78.93
75.85
71.94
67.87
64.10
60.57
56.82
52.13
45.68
36.96
25.78
12.39
-2.64
-18.51
-34.40
-49.64
-63.59
-75.94
-86.55
-95.54
-103.23
-110.04
-116.21
-121.66
-125.83
-127.72
-126.30
-120.95
-111.68
-99.32
-85.09
-70.08
-54.86
-39.40
-23.36
-6.74
10.01
25.89
39.75
50.89
59.24
65.24
69.54
72.59
74.39
74.69
73.26
70.13
65.80
61.19
57.21
54.48
53.18
53.02
53.48
54.09
54.57
54.81
54.90
54.89
54.70
54.01
52.43
49.58
45.35
39.99
33.93
27.76
21.93
16.65
11.77
7.06
2.20
-2.94
-8.41
-14.10
-19.84
-25.39
-30.17
-33.45
-34.33
-32.02
-26.11
-16.83
-5.12
7.72
20.12
30.98
39.61
45.85
49.75
51.55
51.36
49.21
45.31
40.06
34.18
28.55
24.00
21.01
19.64
19.50
19.97
20.64
21.23
21.70
22.03
22.17
21.94
21.03
19.20
16.31
12.52
8.03
3.20
-1.59
-6.03
-9.93
-13.15
-15.81
-18.04
-20.05
-22.22
-24.81
-27.89
-31.26
-34.39
-36.34
-36.09
-32.90
-26.40
-17.11
-6.04
5.36
15.74
24.14
30.18
34.02
36.08
36.86
36.73
35.99
34.82
33.34
31.71
30.10
28.60
27.20
25.92
24.54
23.06
21.41
19.59
17.70
15.87
14.10
12.30
10.37
8.03
5.32
2.37
-0.64
-3.48
-6.04
-8.30
-10.46
-12.69
-15.26
-18.27
-21.83
-26.00
-30.79
-35.97
-41.11
-45.40
