1638296450.00
64.000000
-0.00
-0.00
-0.00
-0.00
-0.00
-0.00
-0.00
-0.00
-0.00
-0.00
0.00
0.01
0.01
-0.00
-0.03
-0.05
-0.05
0.00
0.13
0.36
0.66
1.01
1.37
1.72
2.06
2.40
2.79
3.24
3.80
4.42
5.06
5.66
6.20
6.68
7.15
7.68
8.31
9.14
10.09
11.04
11.88
12.56
13.14
13.76
14.65
15.96
17.91
20.32
22.90
25.38
27.58
29.57
31.68
34.32
37.81
42.54
48.14
54.10
59.84
65.00
69.63
74.19
79.35
85.62
93.55
102.64
112.13
121.14
129.13
136.11
142.65
150.07
157.03
165.78
176.96
190.70
205.82
219.42
227.14
224.27
207.37
175.52
131.13
78.09
20.84
-37.32
-94.81
-151.45
-207.51
-262.87
-316.77
-367.71
-414.59
-456.46
-492.54
-521.89
-543.28
-555.26
-556.41
-545.84
-523.26
-489.55
-446.37
-395.97
-340.88
-283.58
-226.31
-170.89
-118.67
-70.45
-26.73
12.22
46.31
75.44
99.58
118.72
133.00
142.55
147.46
147.84
144.24
138.07
131.79
128.44
130.59
139.19
152.94
168.67
182.49
191.40
194.14
191.26
184.31
174.86
163.89
151.81
138.92
125.73
113.03
101.56
91.64
83.06
75.23
67.48
59.41
51.18
43.08
35.57
29.04
23.72
19.57
16.37
13.76
11.43
9.12
6.70
4.18
1.64
-0.77
-2.90
-4.58
-5.73
-6.38
-6.75
-7.18
-7.97
-9.21
-10.70
-11.95
-12.38
-11.60
-9.60
-6.84
-4.14
-2.33
-1.96
-3.11
-5.29
-7.56
-8.74
-7.80
-4.21
1.68
8.60
14.54
17.35
15.61
9.42
0.79
-6.87
-9.95
-6.07
4.84
20.35
36.36
48.62
54.15
51.94
42.89
29.16
13.44
-1.47
-13.17
-19.83
-20.66
-16.27
-8.64
-0.74
4.42
4.65
-0.76
-10.94
-23.70
-36.20
-45.67
-50.14
-48.81
-42.30
-32.40
-21.42
-11.45
-3.74
1.37
4.18
5.18
4.69
2.94
0.28
-2.62
-4.81
-5.40
-3.91
-0.57
3.88
8.32
11.79
13.72
14.16
13.71
13.16
13.12
13.67
14.26
14.03
12.33
9.17
5.35
2.09
0.44
0.75
2.40
4.21
4.84
3.51
-0.02
-5.34
-11.50
-17.13
-20.57
-20.15
-14.72
-4.29
9.58
23.92
35.29
40.81
39.27
31.47
19.82
7.52
-2.89
-10.03
-14.13
-16.55
-19.06
-22.85
-27.99
-33.36
-37.28
-38.28
-36.01
-31.27
-25.37
-19.42
-13.86
-8.50
-3.00
2.59
7.70
11.50
13.28
13.03
11.44
9.66
8.87
9.70
11.99
14.72
16.71
16.96
15.14
11.72
7.65
3.94
1.33
-0.13
-0.77
-1.17
-1.97
-3.66
-6.46
-10.16
-14.03
-16.99
-18.06
-16.75
-13.31
-8.60
-3.64
0.80
4.45
7.44
9.95
12.06
13.63
14.46
14.44
13.60
12.18
10.51
8.84
7.33
6.07
5.14
4.66
4.79
5.58
6.85
8.07
8.54
7.69
5.36
2.01
-1.57
-4.57
-6.56
-7.50
-7.64
-7.23
-6.42
-5.27
-3.92
-2.56
-1.28
-0.09
1.17
2.57
4.02
5.19
5.67
5.29
4.22
3.02
2.21
2.09
2.48
3.06
3.47
3.31
2.23
0.01
-3.20
-6.95
-10.38
-12.70
-13.29
-12.01
-9.56
-6.93
-5.05
-4.30
-4.79
-6.47
-9.43
-13.22
-16.89
-19.31
-19.55
-17.51
-13.94
-10.43
-6.90
-4.52
-3.47
-3.09
-2.78
-2.47
-3.41
-5.36
-7.47
-8.46
-7.50
-4.33
0.36
5.13
9.24
11.88
12.99
13.05
12.69
12.20
11.68
11.03
9.99
8.46
6.42
4.23
2.16
0.28
-1.72
-4.11
-6.99
-10.14
-13.07
-15.30
-16.34
-16.09
-14.89
-13.40
-12.19
-11.44
-10.90
-10.20
-9.12
-7.62
-5.93
-4.51
-3.89
-4.52
-6.44
-9.33
-12.74
-16.20
-19.12
-20.81
-20.75
-18.76
-15.12
-10.25
-4.67
1.00
6.23
10.94
15.49
20.51
26.49
32.26
36.31
38.15
38.27
36.68
32.62
25.49
16.01
6.67
0.73
0.93
7.89
19.74
32.38
41.28
42.92
35.69
20.57
0.78
-18.83
-33.57
-40.87
-41.53
-39.10
-36.97
-38.68
-45.62
-56.15
-65.72
-69.36
-64.04
-50.44
-31.96
-12.92
3.02
13.75
18.62
18.42
14.84
9.98
5.84
4.80
9.83
23.73
48.12
78.80
106.96
124.05
126.90
116.90
97.51
72.90
47.00
22.87
2.17
-13.60
-25.29
-33.66
-39.72
-44.47
-48.59
-52.28
-55.34
-57.32
-57.18
-52.86
-43.98
-32.04
-19.74
-9.86
-4.35
-3.42
-5.64
-7.85
-6.94
-1.19
9.23
22.85
37.86
52.64
66.45
78.80
89.74
98.59
103.93
104.46
99.84
90.77
77.99
62.21
40.65
14.05
-13.60
-37.77
-55.88
-67.33
-72.60
-73.16
-69.90
-63.97
-56.12
-47.72
-40.82
-37.24
-37.70
-41.49
-48.89
-56.99
-63.87
-68.69
-72.25
-76.41
-83.04
-93.33
-103.61
-114.81
-125.96
-134.08
-134.32
-122.15
-95.85
-58.04
-15.17
24.70
54.41
71.72
78.45
78.96
77.20
75.01
72.18
67.96
62.55
56.99
53.53
53.47
56.35
60.08
62.22
60.98
56.45
50.28
44.53
41.29
41.59
45.18
50.68
55.89
58.22
55.33
45.89
30.13
10.47
-9.31
-25.45
-35.60
-39.68
-39.51
-37.66
-35.67
-33.90
-31.66
-28.19
-23.51
-18.60
-14.98
-13.88
-15.46
-18.70
-21.81
-22.76
-20.24
-14.15
-5.63
3.16
10.03
13.61
13.81
11.56
8.31
5.41
3.34
2.05
1.14
0.21
-1.01
-2.42
-3.71
-4.38
-4.05
-2.65
-0.56
1.55
3.01
3.52
3.31
2.95
2.99
3.62
4.59
5.37
5.54
5.05
4.13
3.13
2.32
1.75
1.31
0.91
0.55
0.34
0.43
0.78
1.19
1.41
1.25
0.69
-0.14
-1.04
-1.71
-1.87
-1.51
-0.95
-0.73
-1.45
-3.36
-6.23
-9.39
-11.72
-12.08
-9.98
-5.73
-0.23
5.36
9.86
12.12
11.10
6.47
-1.10
-9.98
-17.94
-22.88
-23.66
-20.61
-14.98
-9.55
-6.99
-7.97
-11.17
-14.70
-17.80
-20.97
-24.95
-29.83
-34.80
-38.18
-37.72
-32.27
-22.30
-9.83
2.49
12.38
18.63
21.25
21.29
20.14
18.75
17.47
16.25
15.11
14.25
13.88
13.92
13.96
13.45
11.86
9.03
5.27
1.38
-1.72
-3.28
-2.92
-0.64
3.28
8.27
13.58
18.37
21.94
23.99
24.69
24.73
25.00
26.17
28.38
31.16
33.65
35.02
34.79
32.91
29.75
25.91
22.16
19.33
18.18
19.03
21.54
24.72
27.25
27.91
25.96
21.27
14.35
6.16
-2.15
-9.50
-14.99
-18.11
-18.96
-18.44
-18.02
-19.02
-22.04
-26.69
-31.79
-35.77
-37.12
-34.89
-29.04
-20.60
-11.39
-3.80
-0.56
-4.30
-16.65
-36.75
-60.01
-79.37
-88.83
-85.89
-71.86
-50.60
-26.96
-5.11
12.45
25.00
32.96
37.04
37.87
35.96
31.99
26.86
21.88
18.76
18.19
19.87
22.37
23.96
23.50
21.13
18.04
15.91
15.94
18.19
21.76
25.33
28.05
29.35
29.56
28.42
24.82
17.04
4.03
-13.46
-33.08
-51.79
-67.20
-78.16
-84.53
-85.92
-81.07
-68.14
-46.02
-16.32
16.18
44.81
63.88
70.81
67.81
58.12
45.05
30.46
13.72
-7.01
-32.46
-60.02
-83.54
-95.40
-88.52
-63.05
-25.43
13.81
44.34
59.64
58.75
45.33
25.51
5.39
-10.30
-18.38
-17.60
-8.67
6.04
23.18
39.30
51.68
58.48
58.59
52.01
39.71
23.70
6.92
-7.47
-17.14
-21.40
-21.46
-19.74
-18.74
-20.09
-24.05
-29.35
-33.73
-34.56
-30.23
-21.04
-9.39
1.30
8.16
10.30
9.09
7.18
7.01
9.52
13.89
18.18
20.48
19.65
15.65
9.31
1.88
-5.37
-11.41
-15.69
-18.22
-19.27
-19.15
-17.96
-15.54
-11.75
-6.80
-1.47
3.13
6.06
7.04
6.61
5.80
5.60
6.42
7.93
9.40
10.07
9.66
8.44
7.01
5.93
5.44
5.43
5.57
5.62
5.55
5.30
5.13
5.25
5.68
6.16
6.38
6.15
5.53
4.74
4.09
3.77
3.85
4.25
4.91
5.77
6.79
7.84
8.73
9.28
9.46
9.41
9.38
9.53
9.83
10.06
10.01
9.65
9.16
8.83
8.84
9.13
9.40
9.30
8.61
7.40
5.94
4.55
3.31
2.23
1.33
0.68
0.36
0.42
0.75
1.10
1.08
0.19
-1.67
-4.06
-6.32
-7.99
-9.05
-9.93
-11.25
-13.47
-16.93
-21.17
-25.17
-27.98
-29.52
-30.52
-32.17
-35.37
-40.32
-46.75
-53.37
-58.37
-60.03
-57.64
-51.37
-42.26
-31.77
-19.06
-6.09
3.33
6.29
3.01
-3.86
-11.04
-16.50
-19.75
-21.47
-22.96
-24.47
-25.51
-24.14
-19.73
-13.72
-9.63
-11.54
-22.42
-42.86
-69.93
-97.70
-119.02
-128.06
-119.27
-91.40
-47.72
4.62
56.17
98.23
125.33
136.52
134.75
125.47
113.85
103.32
95.08
88.71
83.48
79.18
76.07
74.21
73.29
71.88
68.05
60.39
48.91
35.23
22.01
11.69
5.37
3.07
3.25
3.75
2.84
0.24
-2.77
-4.15
-2.20
3.45
12.65
24.29
36.86
48.83
59.28
67.90
74.65
79.30
76.68
64.08
43.26
19.51
-2.37
-20.15
-33.58
-43.72
-50.79
-54.95
-56.07
-54.85
-51.82
-48.38
-45.76
-44.41
-43.66
-41.83
-37.04
-27.18
-11.18
9.85
32.00
49.48
55.10
44.66
20.71
-8.69
-34.17
-49.91
-55.27
-53.73
-49.82
-46.33
-43.32
-39.23
-32.97
-24.92
-16.75
-10.29
-6.67
-5.80
-6.24
-6.05
-3.74
0.91
6.89
12.65
16.89
19.04
19.29
18.79
18.75
20.00
22.48
25.35
27.44
27.86
26.29
22.37
17.21
11.73
6.59
1.95
-2.47
-7.05
-12.08
-16.40
-20.39
-23.65
-25.81
-26.69
-26.46
-25.64
-24.85
-24.58
-24.98
-25.96
-26.89
-27.25
-26.84
-25.85
-24.90
-24.73
-25.84
-28.23
-31.39
-34.34
-36.18
-36.56
-35.84
-35.10
-35.59
-38.21
-43.02
-49.13
-54.99
-59.29
-61.32
-61.47
-60.97
-61.37
-63.92
-69.68
-78.55
-89.72
-101.09
-109.07
-109.27
-97.96
-74.02
-40.00
-1.82
34.10
62.69
82.30
94.54
102.58
108.87
113.94
116.73
116.19
112.50
107.22
102.74
100.57
100.91
103.09
106.37
109.86
112.13
110.56
102.12
85.21
61.62
36.99
18.94
13.58
22.41
41.49
63.48
82.14
95.15
104.10
111.76
118.64
121.28
114.07
92.86
58.07
15.66
-25.73
-59.23
-82.50
-97.69
-108.45
-115.82
-114.67
-101.02
-73.48
-36.91
-2.41
17.59
15.67
-6.68
-39.87
-71.31
-91.99
-99.58
-97.95
-93.71
-91.73
-92.99
-95.45
-96.41
-94.66
-91.36
-88.61
-88.20
-90.93
-96.18
-102.18
-106.94
-108.97
-107.59
-103.39
-98.43
-93.00
-87.55
-81.94
-75.66
-68.54
-61.30
-55.04
-49.86
-44.92
-36.68
-20.86
5.24
40.54
79.75
115.23
140.45
152.40
152.41
144.87
134.12
122.67
110.90
98.85
85.55
71.59
58.40
47.18
38.35
31.19
24.62
17.76
10.67
4.32
-0.04
-1.43
0.25
4.28
9.15
13.20
15.37
15.47
14.29
12.97
12.57
13.75
16.58
20.55
24.85
28.90
30.97
31.91
32.34
32.67
33.11
33.64
34.04
33.89
33.08
31.58
29.75
27.56
25.09
22.43
19.57
17.36
14.90
11.85
8.04
3.80
-0.80
-5.30
-9.11
-11.62
-12.45
-11.77
-9.85
-7.34
-4.58
-2.24
-0.43
1.06
2.60
4.41
6.31
7.98
7.88
6.49
4.07
1.29
-1.05
-2.17
-1.43
1.56
7.02
14.55
23.61
31.42
35.00
31.97
21.70
5.82
-12.10
-27.94
-38.70
-43.43
-43.53
-41.29
-38.67
-36.54
-34.75
-32.67
-29.97
-26.76
-23.22
-19.42
-14.92
-9.22
-2.22
5.57
13.23
19.72
24.43
27.40
29.07
30.11
30.98
31.81
31.54
29.42
24.91
17.87
8.67
-1.93
-12.89
-23.11
-31.65
-37.95
-41.69
-42.98
-42.22
-39.95
-36.69
-32.85
-28.60
-23.91
-18.65
-12.77
-6.50
-0.48
4.56
8.02
9.71
9.90
9.10
7.77
6.22
4.56
2.92
1.61
1.11
1.93
4.33
8.15
12.89
18.03
23.19
28.29
33.45
38.82
44.38
49.87
54.82
58.70
61.01
61.49
60.12
57.17
53.06
48.20
42.85
37.12
31.03
24.69
18.34
12.29
6.67
1.36
-4.07
-10.05
-16.81
-24.12
-31.41
-38.00
-43.42
-47.58
-50.76
-53.35
-55.65
-57.76
-59.57
-60.90
-61.69
-62.05
-62.22
-62.41
-62.66
-62.73
-62.13
-60.38
-57.21
-52.78
-47.61
-42.36
-37.65
-33.75
-30.70
-28.32
-26.48
-25.11
-24.21
-23.73
-23.69
-24.12
-25.11
-26.67
-28.63
-30.57
-31.89
-32.14
-31.22
-29.37
-26.93
-24.03
-20.47
-15.89
-10.22
-3.89
2.20
7.09
10.32
12.10
13.13
14.18
15.67
17.66
20.07
22.92
26.42
30.81
36.05
41.71
47.13
51.74
55.27
57.87
59.87
61.49
62.70
63.16
62.44
60.20
56.38
51.21
45.11
38.56
31.98
25.70
19.86
14.52
9.63
5.08
0.80
-3.28
-7.16
-10.77
-13.99
-16.68
-18.64
-19.68
-19.58
-18.19
-15.46
-11.51
-6.71
-1.59
3.19
7.04
9.56
10.71
10.76
10.12
9.16
7.96
6.31
3.84
0.23
-4.47
-9.80
-14.93
-18.97
-21.16
-21.17
-19.19
-15.89
-12.25
-9.32
-7.90
-8.32
-10.45
-13.74
-17.50
-21.09
-24.04
-26.04
-26.88
-26.51
-25.00
-22.68
-20.03
-17.64
-15.95
-15.18
-15.28
-15.97
-16.84
-17.46
-17.43
-16.51
-14.65
-11.90
-8.36
-4.06
1.01
6.80
13.01
19.05
24.20
27.83
29.68
29.86
28.73
26.69
24.06
21.11
18.14
15.51
13.46
12.01
10.96
9.94
8.74
7.47
6.53
6.39
7.30
9.16
11.60
14.20
16.78
19.52
22.71
26.47
30.45
33.83
35.59
35.04
32.20
27.86
23.32
19.80
18.03
18.02
19.32
21.34
23.61
25.79
27.47
28.16
27.28
24.46
19.64
13.01
4.85
-4.75
-15.83
-28.58
-43.31
-60.39
-80.08
-102.06
-124.97
-146.23
-162.70
-171.93
-173.11
-167.16
-155.72
-139.79
-119.08
-92.77
-61.07
-26.45
6.53
33.20
51.07
61.07
66.53
70.59
73.95
74.44
68.68
54.76
33.88
10.17
-11.18
-26.22
-33.54
-34.19
-30.60
-25.32
-20.27
-16.45
-14.10
-12.80
-11.68
-9.82
-6.88
-3.45
-0.82
0.06
-0.22
0.84
6.75
20.35
42.02
69.19
97.33
122.07
141.02
154.28
163.20
168.72
170.24
165.88
154.11
135.46
113.03
91.28
73.68
60.76
50.17
38.28
22.45
2.50
-19.26
-39.34
-54.63
-63.41
-65.77
-62.51
-54.45
-42.44
-27.61
-11.29
5.26
21.40
37.38
53.00
68.35
83.48
97.75
109.49
116.55
117.32
111.54
100.85
86.58
71.75
60.50
56.35
59.88
68.25
76.41
78.94
72.37
53.13
21.70
-17.66
-59.44
-100.47
-140.89
-182.79
-228.71
-279.76
-338.76
-404.41
-470.19
-525.98
-562.55
-574.32
-560.23
-524.07
-449.42
-338.95
-213.74
-100.53
-14.00
45.62
85.45
116.28
144.39
173.22
200.60
224.97
242.31
250.57
247.95
234.06
211.69
186.47
165.39
150.73
142.48
139.38
140.32
143.80
148.35
153.00
156.56
157.75
153.20
140.91
121.60
98.72
76.01
56.17
40.05
26.76
14.71
1.61
-13.50
-29.71
-44.57
-55.72
-61.83
-62.81
-59.80
-54.56
-49.39
-46.14
-45.67
-47.54
-50.49
-52.98
-53.80
-52.48
-49.38
-45.38
-41.39
-37.89
-34.77
-31.64
-28.17
-24.39
-20.70
-17.59
-15.34
-13.85
-12.66
-11.18
-8.94
-5.79
-1.97
2.10
5.94
9.31
12.25
15.11
18.30
22.06
26.35
30.84
35.13
38.90
42.14
45.11
48.26
52.13
57.08
63.27
70.45
78.03
85.15
90.99
95.06
97.54
99.29
101.63
105.72
111.84
119.09
125.48
128.80
127.69
122.62
116.06
111.30
110.75
114.06
117.49
114.98
100.24
69.07
20.61
-42.62
-115.35
-190.22
-258.33
-310.25
-338.12
-338.25
-313.12
-271.11
-223.40
-179.70
-144.80
-117.91
-94.83
-71.47
-46.48
-21.26
1.06
18.09
29.27
35.71
38.75
38.70
34.34
23.37
4.24
-22.12
-51.27
-76.23
-90.14
-89.32
-75.13
-53.08
-30.08
-11.01
2.82
12.97
21.59
29.50
35.97
39.67
39.94
37.02
31.46
23.35
12.64
0.00
-12.40
-20.85
-22.04
-14.94
-1.56
13.78
26.52
34.07
36.74
37.11
38.55
43.41
51.89
61.82
69.42
70.80
63.79
49.14
30.38
12.24
-1.61
-10.35
-15.98
-21.74
-29.64
-38.95
-46.50
-48.48
-42.55
-29.11
-11.03
7.78
23.88
35.33
42.03
45.50
48.36
53.39
62.23
74.33
86.71
94.98
95.39
86.91
72.11
56.25
44.87
41.13
44.08
48.91
49.11
39.43
18.24
-11.88
-45.82
-78.48
-106.63
-128.95
-144.85
-153.20
-152.41
-141.74
-122.94
-100.55
-80.30
-66.65
-61.14
-63.04
-71.55
-87.78
-114.44
-153.03
-200.70
-249.09
-286.58
-303.05
-293.98
-261.64
-212.79
-154.88
-93.16
-30.48
31.00
87.76
134.43
165.60
178.55
174.95
160.52
142.54
126.96
116.49
110.59
106.92
103.26
98.65
93.51
88.87
85.49
83.42
81.99
80.29
77.64
74.09
70.35
67.53
66.55
67.71
70.33
72.95
73.85
71.76
66.49
58.93
50.64
43.12
37.27
33.15
30.23
27.73
24.97
21.51
17.12
11.78
5.67
-0.70
-6.59
-11.33
-14.59
-16.59
-17.95
-19.26
-20.63
-21.52
-20.95
-17.92
-11.85
-2.72
9.04
22.76
37.80
53.46
68.87
82.80
93.71
100.21
101.75
99.00
93.98
89.51
88.18
91.48
99.39
110.37
121.95
131.15
134.53
128.38
109.66
77.59
35.07
-11.33
-53.73
-86.79
-110.76
-131.49
-156.73
-190.81
-230.79
-267.05
-287.97
-285.91
-260.79
-219.23
-170.35
-121.15
-74.40
-29.86
12.85
51.82
82.53
99.59
98.85
79.20
43.02
-4.53
-56.52
-105.41
-144.34
-168.27
-174.80
-164.42
-140.02
-105.84
-66.55
-26.54
10.39
41.26
64.02
77.78
82.95
81.26
75.37
68.15
61.91
57.74
55.44
54.05
52.66
50.92
49.16
48.02
47.75
47.92
47.47
45.17
40.13
32.23
22.18
11.32
1.44
-5.69
-8.61
-6.62
-0.13
9.30
19.19
26.82
30.05
28.01
21.32
11.86
2.07
-5.82
-10.52
-11.91
-10.91
-9.03
-7.78
-8.31
-11.18
-16.30
-23.01
-30.30
-37.00
-42.10
-44.87
-44.98
-42.54
-37.99
-32.10
-25.74
-19.76
-14.71
-10.59
-6.90
-2.84
2.24
8.44
15.12
21.10
25.22
26.80
25.93
23.48
20.67
18.66
18.22
19.60
22.49
26.24
30.04
33.14
35.02
35.50
34.68
32.82
30.17
26.92
23.24
19.38
15.69
12.49
9.98
8.07
6.51
5.00
3.38
1.69
0.10
-1.31
-2.67
-4.27
-6.49
-9.45
-12.95
-16.40
-18.96
-19.67
-17.77
-12.98
-5.70
2.98
11.52
18.40
22.61
23.98
23.26
21.71
20.51
20.29
20.92
21.74
21.89
20.58
17.31
12.13
5.53
-1.61
-8.17
-12.97
-15.13
-14.42
-11.54
-7.96
-5.05
-3.86
-4.79
-7.77
-12.26
-17.44
-22.39
-26.52
-29.68
-31.46
-31.54
-29.67
-25.96
-20.70
-14.21
-7.01
0.12
6.30
11.68
17.14
23.88
32.72
43.95
57.42
72.53
88.19
98.06
96.62
81.91
57.37
29.17
2.50
-19.77
-36.72
-48.46
-55.52
-57.78
-55.45
-49.14
-40.65
-32.66
-27.55
-26.53
-29.32
-34.41
-39.16
-41.28
-39.43
-34.53
-29.42
-27.11
-28.92
-33.89
-39.54
-42.88
-42.34
-37.71
-30.25
-21.97
-14.65
-9.30
-6.19
-5.02
-4.95
-5.45
-5.67
-5.06
-3.31
-0.20
4.51
10.83
18.34
26.12
32.92
37.60
39.44
38.44
35.42
31.66
28.29
25.86
24.20
22.75
21.02
18.83
16.38
14.19
12.83
12.58
13.33
14.54
15.48
15.56
14.51
12.56
10.40
8.96
8.96
10.61
13.35
16.04
17.42
16.59
13.57
9.40
5.83
4.59
6.53
11.12
16.50
20.27
20.53
16.84
10.36
3.43
-1.43
-2.41
1.15
8.83
19.33
30.45
39.13
41.83
35.74
20.37
-1.40
-23.82
-40.51
-47.50
-45.40
-39.04
-34.89
-37.38
-46.43
-57.64
-64.91
-63.93
-54.51
-40.29
-26.50
-17.00
-12.60
-11.30
-10.01
-6.67
-1.39
3.85
6.65
5.74
1.76
-3.07
-6.24
-6.29
-3.49
0.37
3.00
2.78
-0.53
-5.85
-11.30
-15.20
-16.65
-15.90
-14.01
-12.34
-11.91
-13.05
-15.39
-18.14
-20.58
-22.35
-23.35
-23.47
-22.34
-19.25
-13.58
-5.28
4.85
15.30
24.46
31.26
35.55
37.96
39.30
40.07
40.09
38.72
35.31
29.64
22.14
13.75
5.63
-1.29
-6.52
-10.08
-12.26
-13.42
-13.69
-13.08
-11.61
-9.56
-7.55
-6.36
-6.59
-8.39
-11.36
-14.72
-17.69
-19.71
-20.60
-20.50
-19.70
-18.52
-17.19
-15.81
-14.38
-12.83
-11.03
-8.93
-6.55
-4.03
-1.64
0.33
1.69
2.38
2.54
2.46
2.40
2.54
2.87
3.23
3.44
3.46
3.45
3.75
4.72
6.56
9.22
12.42
15.70
18.46
20.03
19.76
17.21
12.38
5.83
-1.33
-7.83
-12.55
-14.95
-15.13
-13.71
-11.49
-9.20
-7.24
-5.78
-4.77
-4.13
-3.77
-3.66
-3.78
-4.12
-4.67
-5.35
-5.99
-6.42
-6.50
-6.21
-5.73
-5.31
-5.16
-5.32
-5.57
-5.57
-5.07
-4.05
-2.84
-1.89
-1.58
-1.95
-2.70
-3.34
-3.55
-3.32
-2.99
-3.05
-3.82
-5.28
-7.08
-8.72
-9.81
-10.13
-9.66
-8.50
-6.73
-4.38
-1.49
1.81
5.24
8.39
10.89
12.48
13.15
13.09
12.59
11.91
11.18
10.41
9.54
8.55
7.46
6.32
5.22
4.21
3.35
2.71
2.35
2.33
2.64
3.16
3.76
4.26
4.52
4.44
3.96
3.01
1.58
-0.26
-2.33
-4.33
-5.93
-6.83
-6.87
-6.05
-4.55
-2.67
-0.70
1.13
2.68
3.87
4.65
4.93
4.60
3.63
2.20
0.68
-0.44
-0.80
-0.32
0.74
1.93
2.88
3.53
4.13
5.06
6.54
8.45
10.28
11.44
11.49
10.44
8.67
6.80
5.33
4.51
4.26
4.35
4.58
4.93
5.56
6.64
8.25
10.22
12.20
13.79
14.79
15.28
15.62
16.32
17.85
20.42
23.93
28.02
32.17
35.99
39.28
42.03
44.27
46.01
47.18
47.76
47.96
48.29
49.43
51.87
55.71
60.51
65.47
69.78
72.91
74.85
75.96
76.84
78.11
80.26
83.66
88.56
95.19
103.80
114.50
126.77
139.12
148.90
152.64
147.07
130.07
101.37
62.37
15.59
-35.98
-89.11
-140.26
-185.43
-220.65
-242.79
-250.74
-245.97
-232.32
-214.98
-198.99
-188.01
-183.59
-184.89
-189.25
-192.90
-192.16
-184.32
-168.24
-144.33
-114.00
-79.07
-41.44
-3.28
32.86
63.99
87.08
99.72
100.86
91.13
72.83
49.33
24.39
1.53
-16.50
-27.73
-30.88
-25.28
-11.22
9.52
33.46
55.85
72.27
80.33
80.79
77.13
73.37
71.79
71.55
69.47
62.21
48.63
30.71
12.63
-1.33
-8.82
-9.96
-6.80
-1.95
2.35
4.48
3.24
-2.47
-13.62
-30.72
-53.38
-80.08
-108.22
-134.35
-154.85
-166.93
-169.66
-164.56
-155.30
-146.38
-141.23
-140.73
-142.81
-143.59
-139.32
-128.33
-111.79
-93.20
-76.97
-66.87
-64.75
-70.00
-79.61
-88.70
-91.53
-82.89
-59.93
-23.38
22.12
69.22
110.03
138.65
152.44
152.22
141.11
123.18
102.44
82.33
65.57
54.03
48.28
47.53
49.96
53.44
56.36
57.95
58.17
57.36
55.95
54.54
53.93
55.00
58.27
63.34
68.80
72.51
72.51
67.88
59.05
47.74
36.26
26.61
19.83
15.82
13.56
11.73
9.47
6.95
5.27
5.81
9.30
15.41
22.75
29.56
34.49
37.03
37.63
37.12
36.36
35.89
35.98
36.83
38.71
41.91
46.59
52.51
58.94
64.81
68.95
70.56
69.47
66.20
61.82
57.38
53.50
50.13
46.78
42.75
37.63
31.43
24.53
17.43
10.51
4.00
-2.02
-7.47
-12.24
-16.19
-19.24
-21.46
-23.03
-24.10
-24.71
-24.78
-24.26
-23.25
-22.01
-20.97
-20.46
-20.62
-21.24
-21.84
-21.87
-21.07
-19.37
-17.04
-14.57
-12.56
-11.66
-12.30
-14.53
-17.91
-21.79
-25.26
-27.42
-27.76
-26.47
-24.32
-22.30
-21.19
-21.17
-22.47
-24.81
-27.61
-30.39
-33.02
-35.74
-38.77
-41.96
-44.78
-47.47
-50.22
-53.14
-56.32
-59.89
-63.80
-67.51
-70.10
-70.63
-69.75
-68.19
-66.22
-63.49
-59.63
-54.96
-50.99
-50.42
-48.49
-43.54
-36.12
-27.80
-19.15
-9.66
0.84
11.54
21.23
29.27
34.81
38.01
39.57
40.11
39.76
38.35
36.01
33.43
31.66
30.74
30.35
29.97
29.01
26.92
23.54
19.29
15.21
12.50
11.40
11.40
11.59
10.85
8.40
4.17
-1.07
-5.91
-9.10
-10.17
-9.64
-8.55
-8.08
-9.23
-12.75
-19.13
-28.27
-38.84
-47.89
-51.77
-46.56
-30.77
-6.44
21.13
45.36
61.12
66.25
62.92
55.29
47.30
40.89
36.04
31.86
27.78
24.12
21.72
21.14
22.03
23.39
24.15
23.61
21.94
19.90
18.38
17.99
18.96
20.89
23.16
25.10
26.41
27.34
28.63
31.11
35.37
41.12
46.72
49.70
47.54
39.04
25.05
8.27
-7.73
-20.08
-27.34
-29.87
-29.13
-26.85
-24.00
-20.52
-15.94
-10.34
-5.00
-2.25
-4.61
-13.33
-27.95
-46.12
-64.38
-79.61
-89.05
-91.74
-87.02
-74.98
-54.78
-27.07
5.52
38.52
66.44
84.55
90.38
84.36
69.32
49.43
28.67
10.18
-4.02
-13.22
-17.63
-18.13
-15.77
-11.53
-6.47
-2.28
-0.97
-4.35
-13.53
-28.03
-45.47
-62.08
-73.81
-77.79
-73.42
-62.32
-47.21
-31.20
-16.79
-5.63
1.31
3.53
1.12
-5.03
-13.92
-22.53
-27.30
-25.32
-15.69
0.01
18.15
34.20
44.37
46.80
42.19
32.96
22.30
13.03
7.02
5.11
7.48
13.90
23.88
36.69
50.91
64.64
76.04
84.04
88.82
91.67
94.21
97.49
101.32
104.11
103.55
97.47
84.84
66.00
42.62
17.24
-7.31
-28.50
-44.50
-54.51
-58.55
-57.47
-52.65
-45.69
-38.22
-31.65
-26.98
-24.71
-24.62
-26.03
-28.04
-29.88
-31.25
-32.29
-33.36
-34.74
-36.25
-37.42
-37.73
-36.91
-35.16
-32.95
-30.68
-28.48
-25.95
-22.57
-18.05
-12.63
-7.08
-2.33
1.04
3.04
4.36
5.83
7.95
10.67
13.39
15.45
16.56
16.90
17.26
18.40
20.69
23.77
26.66
28.16
27.41
24.30
19.67
14.82
10.88
8.36
6.90
5.66
3.89
1.37
-1.38
-3.57
-4.64
-4.63
-4.20
-4.19
-5.14
-6.99
-8.93
-10.01
-9.54
-7.54
-4.70
-2.10
-0.63
-0.74
-2.03
-3.73
-5.04
-5.56
-5.48
-5.46
-6.20
-8.03
-10.54
-12.81
-13.85
-13.14
-10.95
-8.27
-6.34
-6.05
-7.31
-9.32
-10.95
-11.49
-11.03
-10.40
-10.62
-12.30
-15.13
-18.24
-20.65
-21.89
-22.21
-22.28
-22.59
-22.97
-22.39
-19.68
-14.18
-6.37
2.14
9.35
13.75
15.08
14.50
13.81
14.50
17.00
20.50
23.51
24.78
23.86
21.50
18.95
17.26
16.76
16.85
16.47
14.78
11.69
8.08
5.25
4.19
5.02
6.79
8.00
7.44
4.74
0.88
-2.62
-4.40
-4.07
-2.44
-1.03
-1.17
-3.27
-6.41
-8.97
-9.55
-7.80
-4.62
-1.73
-0.61
-1.82
-4.45
-6.89
-7.66
-6.31
-3.62
-1.16
-0.29
-1.45
-3.73
-5.63
-5.85
-4.08
-1.20
1.27
2.11
0.95
-1.26
-3.08
-3.33
-1.71
0.92
3.18
3.95
2.93
1.00
-0.46
-0.42
1.27
3.65
5.21
4.77
2.02
-2.05
-5.88
-8.07
-8.13
-6.71
-5.17
-4.76
-5.95
-7.95
-9.37
-8.95
-6.38
-2.55
0.88
2.42
1.43
-1.26
-4.11
-5.59
-5.05
-3.02
-0.85
0.18
-0.43
-1.98
-3.14
-2.75
-0.57
2.52
5.00
5.58
3.88
0.85
-1.94
-3.11
-2.22
-0.06
1.87
2.20
0.48
-2.47
-5.14
-6.19
-5.20
-2.94
-0.90
-0.36
-1.83
-4.40
-6.59
-7.02
-5.28
-2.15
0.88
2.45
2.08
0.59
-0.63
-0.40
1.50
4.19
6.16
6.23
4.10
0.87
-1.91
-2.91
-1.77
0.62
2.77
3.35
1.98
-0.48
-2.52
-2.88
-1.28
1.38
3.54
3.88
1.93
-1.35
-4.41
-5.86
-5.27
-3.40
-1.70
-1.44
-2.99
-5.45
-7.31
-7.28
-5.03
-1.48
1.78
3.33
2.62
0.51
-1.56
-2.25
-1.10
1.16
3.18
3.71
2.38
0.01
-1.96
-2.33
-0.79
1.79
3.89
4.27
2.56
-0.20
-2.35
-2.53
-0.44
2.80
5.35
5.63
3.22
-0.75
-4.33
-5.93
-5.15
-3.07
-1.62
-2.41
-5.89
-10.64
-14.26
-14.39
-10.07
-2.35
6.05
12.00
13.47
10.65
5.59
0.99
-1.21
-0.86
0.75
2.02
2.07
1.60
2.03
4.43
8.59
12.91
15.27
14.34
10.32
5.12
1.20
0.31
2.64
6.75
10.42
11.86
10.45
7.29
4.22
2.82
3.52
5.37
6.65
5.97
3.04
-0.95
-4.18
-5.28
-4.05
-1.66
0.08
-0.21
-2.79
-6.43
-9.40
-10.31
-8.94
-6.27
-3.94
-3.19
-4.29
-6.19
-7.35
-6.62
-3.89
-0.25
2.62
3.40
1.73
-1.35
-4.18
-5.34
-4.39
-2.10
-0.01
0.59
-0.72
-3.02
-4.77
-4.72
-2.64
0.42
2.72
2.86
0.41
-3.46
-6.96
-8.46
-7.46
-4.79
-2.15
-1.00
-1.83
-3.69
-4.95
-4.22
-1.24
2.93
6.47
7.85
6.52
3.56
0.71
-0.43
0.62
3.04
5.17
5.59
3.90
1.20
-0.71
-0.41
2.31
6.12
8.96
9.11
6.11
1.31
-3.18
-5.51
-5.08
-2.89
-0.83
-0.55
-2.63
-6.04
-8.99
-9.90
-8.31
-5.20
-2.40
-1.58
-3.46
-7.13
-10.91
-13.14
-13.17
-11.75
-10.48
-10.79
-13.13
-16.39
-18.77
-18.79
-16.22
-12.34
-9.19
-8.38
-10.35
-13.77
-16.73
-17.64
-16.24
-13.67
-11.80
-12.08
-14.75
-18.50
-21.42
-21.99
-19.95
-16.50
-13.55
-12.69
-14.51
-17.99
-21.45
-23.33
-22.98
-20.96
-18.51
-16.67
-15.55
-13.88
-9.68
-1.23
12.02
28.96
47.31
64.51
78.71
89.72
98.37
105.89
112.87
118.80
122.46
122.85
119.93
115.19
110.71
108.19
108.03
109.05
109.18
106.59
100.48
91.72
82.08
73.39
66.64
61.58
57.02
51.57
44.28
35.20
24.76
13.11
-0.55
-17.91
-40.51
-68.47
-99.68
-129.88
-154.36
-169.89
-176.12
-175.44
-171.45
-166.85
-162.15
-155.67
-145.19
-129.72
-110.63
-91.35
-75.75
-66.53
-64.15
-67.07
-72.72
-78.90
-84.56
-89.79
-95.13
-100.78
-106.07
-109.53
-109.29
-103.84
-92.47
-75.57
-54.43
-30.97
-7.39
14.29
32.58
46.82
57.11
64.16
68.87
71.92
73.61
73.82
72.31
69.01
64.14
58.25
52.04
46.27
41.68
38.80
37.95
39.00
41.35
44.03
46.04
46.69
45.81
43.62
40.67
37.54
34.79
32.91
32.21
32.73
34.01
35.14
35.09
33.08
29.05
23.59
17.66
12.12
7.47
3.80
0.94
-1.30
-3.16
-5.04
-7.53
-11.15
-16.00
-21.37
-25.95
-28.33
-27.74
-24.52
-20.08
-16.14
-13.87
-13.25
-13.39
-13.24
-12.42
-11.49
-11.54
-13.22
-16.13
-18.49
-18.22
-14.05
-6.30
3.02
11.10
15.76
16.31
14.24
12.13
12.52
16.61
23.69
31.51
37.46
39.69
38.33
34.95
31.65
29.83
29.44
29.18
27.59
24.02
19.50
15.84
14.62
16.03
18.63
20.06
18.46
13.37
6.36
-0.12
-3.94
-4.43
-2.72
-0.95
-1.08
-3.79
-7.87
-11.19
-11.72
-8.72
-3.14
3.03
7.82
10.14
10.46
9.91
9.46
9.29
8.77
7.20
4.65
2.23
1.89
5.05
11.70
19.97
26.81
29.36
26.36
18.81
9.79
2.96
0.97
4.35
11.19
17.93
20.72
16.69
5.14
-12.41
-32.51
-50.71
-62.90
-66.49
-61.16
-48.95
-33.37
-18.15
-6.02
1.95
6.23
8.03
8.48
8.08
6.82
4.51
1.20
-2.64
-6.31
-9.15
-10.84
-11.48
-11.40
-11.01
-10.60
-10.17
-9.55
-8.51
-6.94
-5.03
-3.19
-1.74
-0.71
0.29
1.96
4.88
9.20
14.41
19.41
23.11
24.83
24.63
23.40
22.41
22.75
24.74
27.51
29.47
28.87
24.67
17.16
7.83
-1.26
-8.46
-13.46
-16.99
-20.15
-23.53
-26.66
-28.27
-27.25
-23.56
-18.89
-15.59
-15.32
-17.79
-20.57
-20.17
-14.15
-2.55
11.35
22.83
27.81
24.96
16.21
5.65
-2.73
-6.79
-7.42
-7.13
-8.37
-11.95
-16.56
-19.67
-19.27
-14.93
-8.70
-3.60
-2.11
-4.73
-9.71
-14.03
-15.15
-12.37
-7.55
-3.72
-3.31
-6.71
-11.92
-15.66
-15.33
-10.41
-3.21
2.74
4.58
1.69
-3.92
-8.83
-10.23
-7.36
-2.28
1.76
2.16
-1.41
-6.74
-10.46
-9.98
-5.04
1.98
7.58
9.09
6.20
0.98
-3.49
-4.92
-2.90
0.87
3.95
4.56
2.49
-1.08
-4.48
-6.54
-7.00
-6.54
-5.99
-5.85
-5.94
-5.70
-4.60
-2.47
0.49
3.67
6.57
8.85
10.50
11.66
12.50
13.15
13.63
14.00
14.33
14.65
14.95
15.09
14.90
14.29
13.38
12.50
12.03
12.19
12.87
13.65
13.99
13.53
12.27
10.62
9.15
8.31
8.20
8.50
8.72
8.41
7.42
5.95
4.38
3.04
2.06
1.34
0.72
0.16
-0.21
-0.20
0.31
1.20
2.12
2.63
2.46
1.66
0.59
-0.26
-0.57
-0.35
0.03
0.07
-0.56
-1.84
-3.40
-4.81
-5.76
-6.35
-6.95
-8.02
-9.78
-12.11
-14.67
-17.18
-19.53
-21.91
-24.51
-27.35
-30.14
-32.46
-34.07
-35.28
-36.70
-38.96
-42.20
-45.84
-48.85
-50.29
-49.81
-47.94
-45.70
-44.02
-43.34
-43.36
-43.36
-42.64
-40.91
-38.52
-36.06
-33.91
-31.87
-28.98
-23.95
-15.74
-4.22
9.35
22.95
34.50
42.87
48.45
52.81
57.75
64.27
71.74
78.50
82.77
83.82
82.45
80.51
79.74
80.83
82.71
83.49
81.45
76.16
68.79
61.47
56.15
53.68
53.26
53.28
52.25
49.66
46.24
43.45
42.50
43.71
45.99
47.65
47.26
44.41
40.02
35.70
32.85
31.89
31.79
30.89
27.79
22.21
15.25
8.88
4.83
3.74
4.58
5.39
4.34
0.75
-4.50
-9.53
-12.56
-12.82
-11.29
-9.84
-10.37
-13.76
-19.49
-26.04
-31.81
-35.83
-38.44
-40.65
-43.41
-46.87
-50.13
-51.70
-50.46
-46.28
-40.64
-35.68
-33.25
-33.87
-36.46
-38.91
-39.31
-36.86
-32.43
-27.68
-24.00
-21.58
-19.25
-15.28
-8.51
0.73
10.38
17.71
20.68
18.96
14.25
9.31
6.56
6.95
9.36
11.59
11.62
8.82
4.28
0.09
-1.92
-1.24
0.93
2.62
2.26
-0.35
-3.89
-6.34
-6.22
-3.34
0.91
4.55
6.08
5.26
3.13
1.37
1.26
3.00
5.63
7.71
8.17
6.93
4.97
3.71
4.21
6.64
9.99
12.71
13.37
11.35
7.01
1.39
-4.42
-9.81
-14.93
-20.47
-27.16
-35.22
-44.10
-52.63
-59.36
-63.05
-63.13
-59.73
-53.59
-45.81
-37.53
-29.73
-23.07
-17.78
-13.68
-10.24
-6.84
-3.00
1.41
6.05
10.33
13.65
15.73
16.68
17.00
17.31
18.10
19.55
21.49
23.55
25.32
26.48
26.88
26.43
25.09
22.84
19.79
16.19
12.50
9.18
6.57
4.66
3.15
1.62
-0.22
-2.45
-4.88
-7.27
-9.38
-11.11
-12.43
-13.34
-13.82
-13.81
-13.27
-12.17
-10.48
-8.24
-5.49
-2.36
1.02
4.51
8.03
11.48
14.73
17.47
19.34
20.02
19.52
18.21
16.73
15.67
15.25
15.19
14.90
13.78
11.53
8.31
4.68
1.34
-1.03
-2.03
-1.59
-0.05
1.92
3.48
3.87
2.60
-0.36
-4.65
-9.67
-14.72
-19.07
-22.03
-22.97
-21.49
-17.56
-11.64
-4.62
2.46
8.76
13.82
17.58
20.31
22.33
23.92
25.25
26.42
27.43
28.25
28.76
28.81
28.26
27.09
25.42
23.45
21.34
19.19
17.08
15.14
13.64
12.90
13.19
14.51
16.51
18.60
20.16
20.82
20.53
19.52
18.08
16.48
14.80
13.04
11.06
8.63
5.49
1.46
-3.36
-8.50
-13.34
-17.32
-20.28
-22.55
-24.74
-27.42
-30.75
-34.48
-38.16
-41.49
-44.49
-47.52
-50.98
-54.96
-59.10
-62.72
-65.19
-66.35
-66.63
-66.80
-67.49
-68.70
-69.73
-69.61
-67.75
-64.32
-60.19
-56.35
-53.25
-50.56
-47.45
-43.26
-37.90
-31.89
-25.93
-20.36
-15.02
-9.47
-3.39
3.15
9.73
15.94
21.67
27.14
32.74
38.70
44.94
51.07
56.56
60.92
63.74
64.76
63.90
61.21
57.03
51.84
46.23
40.67
35.46
30.71
26.40
22.52
19.07
16.06
13.35
10.66
7.69
4.26
0.47
-3.36
-6.89
-10.03
-13.02
-16.33
-20.33
-25.09
-30.26
-35.29
-39.69
-43.22
-45.93
-47.95
-49.37
-50.09
-49.98
-48.92
-46.90
-44.04
-40.54
-36.70
-32.94
-29.76
-27.64
-26.90
-27.52
-29.04
-30.80
-32.13
-32.63
-32.27
-31.32
-30.18
-29.14
-28.25
-27.29
-25.82
-23.39
-19.73
-14.90
-9.32
-3.72
1.08
4.42
5.91
5.54
3.59
0.64
-2.51
-4.97
-5.87
-4.69
-1.47
3.16
8.19
12.71
16.37
19.43
22.57
26.27
30.33
33.88
35.76
35.17
32.20
27.82
23.46
20.32
18.93
19.06
20.07
21.23
22.09
22.45
22.25
21.44
19.93
17.71
14.99
12.08
9.37
7.13
5.46
4.29
3.52
3.09
2.94
2.97
3.03
2.93
2.55
2.03
1.74
2.20
3.82
6.68
10.41
14.30
17.51
19.50
20.22
20.17
20.06
20.53
21.75
23.49
25.31
26.98
28.69
31.04
34.60
39.57
45.49
51.46
56.49
59.94
61.79
62.52
62.84
63.32
64.16
65.24
66.31
67.14
67.76
68.35
69.04
69.69
69.70
68.21
64.37
57.70
48.33
36.91
24.40
11.70
-0.66
-12.40
-23.29
-32.95
-40.65
-45.55
-47.09
-45.43
-41.58
-37.08
-33.41
-31.28
-30.33
-29.39
-27.13
-22.89
-16.92
-10.16
-3.49
2.77
8.92
15.37
22.15
28.57
33.48
35.98
35.79
33.36
29.45
24.66
19.22
13.09
6.42
-0.25
-6.14
-10.74
-14.24
-17.75
-22.75
-30.43
-41.10
-54.00
-67.65
-80.55
-91.60
-100.31
-106.54
-110.20
-111.11
-109.20
-104.73
-98.42
-91.34
-84.53
-78.62
-73.71
-69.45
-65.22
-60.44
-54.63
-47.65
-39.61
-30.97
-22.38
-14.46
-7.68
-2.15
2.25
5.77
8.64
10.88
12.36
12.84
12.07
10.03
6.97
3.43
0.15
-2.21
-3.30
-3.15
-2.11
-0.62
1.04
2.76
4.55
6.35
7.99
9.30
10.32
11.39
13.09
15.96
20.21
25.56
31.36
36.78
41.11
43.94
45.11
44.71
42.98
40.34
37.34
34.57
32.49
31.15
30.20
29.00
27.00
24.03
20.43
16.88
14.07
12.34
11.49
10.80
9.43
6.65
2.23
-3.56
-10.09
-16.61
-22.57
-27.69
-32.01
-35.78
-39.24
-42.57
-45.85
-49.01
-51.94
-54.40
-56.04
-56.41
-55.26
-52.84
-50.10
-48.47
-49.26
-52.92
-58.60
-64.40
-68.17
-68.48
-65.26
-59.66
-53.32
-47.55
-42.87
-39.13
-35.96
-33.16
-30.75
-28.83
-27.32
-25.93
-24.34
-22.37
-20.10
-17.82
-16.00
-15.04
-15.16
-16.24
-17.82
-19.23
-19.82
-19.31
-17.90
-16.14
-14.58
-13.38
-12.20
-10.39
-7.42
-3.21
1.80
6.89
11.34
14.71
16.90
18.01
18.30
18.18
18.21
19.15
21.71
26.32
32.87
40.63
48.49
55.31
60.30
63.27
64.51
64.50
63.54
61.60
58.35
53.48
47.06
39.72
32.47
26.40
22.32
20.48
20.60
22.11
24.32
26.63
28.58
29.84
30.28
30.05
29.55
29.30
29.75
31.09
33.12
35.38
37.37
38.71
39.24
38.95
37.91
36.26
34.17
32.04
30.39
29.83
30.71
32.95
36.04
39.22
41.82
43.57
44.67
45.58
46.71
48.15
49.63
50.66
50.87
50.22
49.06
47.95
47.34
47.33
47.59
47.51
46.45
44.01
40.11
34.94
28.81
22.17
15.57
9.70
5.14
1.92
-0.86
-4.98
-12.48
-24.62
-40.98
-59.38
-76.55
-89.54
-96.85
-98.95
-97.67
-95.11
-92.62
-90.47
-88.19
-85.29
-81.76
-78.07
-74.74
-71.77
-68.49
-63.91
-57.24
-48.52
-38.76
-29.62
-22.75
-19.09
-18.49
-19.96
-22.14
-23.94
-24.96
-25.43
-25.84
-26.60
-27.71
-28.96
-30.14
-31.27
-32.58
-34.17
-35.63
-36.05
-34.42
-30.23
-23.98
-16.99
-10.76
-6.15
-2.87
0.22
4.37
10.05
16.68
22.95
27.78
30.92
33.20
35.98
40.34
46.48
53.63
60.59
66.42
71.03
75.17
79.87
85.70
92.30
98.37
102.34
103.11
100.58
95.67
89.83
84.26
79.42
74.90
69.79
63.26
55.07
45.74
36.34
27.95
21.08
15.41
9.82
3.00
-5.78
-16.11
-26.42
-34.65
-39.26
-40.04
-38.22
-35.88
-34.96
-36.28
-39.36
-42.82
-45.32
-46.37
-46.57
-47.24
-49.54
-53.76
-58.98
-63.47
-65.42
-63.81
-58.77
-51.45
-43.43
-35.99
-29.66
-24.16
-18.76
-12.76
-5.90
1.57
9.02
15.72
21.13
24.95
27.17
27.97
27.62
26.49
24.87
22.96
20.82
18.41
15.82
13.52
12.24
12.67
14.91
18.11
20.68
20.96
18.14
12.77
6.41
0.76
-3.32
-6.25
-9.30
-13.60
-19.27
-25.18
-29.54
-30.88
-28.93
-24.67
-19.78
-15.72
-13.08
-11.48
-10.13
-8.51
-6.88
-6.11
-7.11
-10.15
-14.48
-18.65
-21.26
-21.68
-20.30
-18.16
-16.20
-14.81
-13.82
-12.98
-12.42
-12.75
-14.50
-17.64
-21.19
-23.63
-23.63
-20.80
-15.90
-10.43
-5.86
-2.93
-1.47
-0.71
0.14
1.43
3.08
4.74
6.19
7.49
8.94
10.78
12.99
15.13
16.56
16.73
15.39
12.75
9.31
5.63
2.16
-0.82
-3.15
-4.75
-5.60
-5.82
-5.71
-5.72
-6.34
-7.81
-9.97
-12.30
-14.11
-14.87
-14.58
-13.80
-13.40
-14.16
-16.27
-19.25
-22.12
-23.83
-23.68
-21.57
-17.97
-13.70
-9.70
-6.69
-4.99
-4.32
-3.85
-2.51
0.58
5.57
11.78
17.89
22.63
25.41
26.54
26.93
27.47
28.50
29.77
30.74
31.05
30.71
30.05
29.31
28.45
27.11
24.91
21.66
17.49
12.78
7.97
3.48
-0.26
-2.79
-3.69
-2.82
-0.45
2.73
5.86
8.25
9.62
10.05
9.74
8.84
7.40
5.47
3.34
1.46
0.29
0.02
0.32
0.54
0.01
-1.61
-4.11
-6.88
-9.22
-10.67
-11.14
-10.85
-10.14
-9.32
-8.64
-8.31
-8.50
-9.28
-10.54
-11.88
-12.82
-13.00
-12.41
-11.36
-10.28
-9.39
-8.60
-7.66
-6.41
-5.08
-4.17
-4.10
-4.78
-5.51
-5.22
-3.10
0.95
6.15
11.26
15.12
17.21
17.82
17.81
18.13
19.40
21.76
24.89
28.23
31.24
33.52
34.83
35.09
34.21
32.14
28.86
24.53
19.55
14.57
10.24
6.93
4.57
2.68
0.66
-1.77
-4.37
-6.57
-7.78
-7.84
-7.09
-6.21
-5.72
-5.70
-5.67
-4.93
-2.95
0.31
4.24
7.90
10.43
11.43
11.05
9.79
8.13
6.32
4.43
2.75
2.03
3.41
7.90
15.73
25.89
36.33
44.78
49.65
50.60
48.34
43.97
38.30
31.60
23.88
15.49
7.40
1.09
-2.11
-1.53
2.50
8.83
15.89
22.26
26.99
29.78
30.82
30.70
30.21
30.19
31.37
34.09
38.08
42.37
45.53
46.10
43.18
36.79
27.90
17.97
8.43
0.17
-6.59
-12.10
-16.74
-20.81
-24.48
-27.83
-30.99
-34.00
-36.76
-38.96
-40.34
-40.94
-41.30
-42.26
-44.60
-48.50
-53.37
-58.09
-61.52
-62.99
-62.55
-60.75
-58.23
-55.42
-52.54
-49.77
-47.53
-46.41
-46.87
-48.74
-51.13
-52.64
-52.04
-48.82
-43.38
-36.69
-29.58
-22.30
-14.51
-5.92
3.15
11.47
17.44
20.01
19.31
16.71
13.98
12.40
12.15
12.71
13.58
15.00
17.92
23.27
31.13
40.32
48.85
54.71
56.74
54.88
49.95
43.12
35.60
28.47
22.75
19.27
18.37
19.76
22.48
25.26
26.92
26.69
24.34
19.98
13.97
6.82
-0.80
-8.16
-14.60
-19.74
-23.53
-26.18
-27.94
-28.90
-29.00
-28.17
-26.48
-24.21
-21.70
-19.20
-16.71
-14.13
-11.48
-8.95
-6.96
-5.82
-5.59
-5.92
-6.26
-6.15
-5.43
-4.29
-3.14
-2.30
-1.93
-1.95
-2.27
-2.82
-3.71
-5.06
-6.94
-9.24
-11.68
-13.88
-15.41
-15.90
-15.13
-12.98
-9.52
-5.01
0.08
5.07
9.21
11.80
12.42
11.10
8.30
4.79
1.39
-1.30
-3.02
-3.85
-4.10
-4.06
-3.88
-3.55
-2.98
-2.15
-1.16
-0.26
0.19
-0.15
-1.47
-3.68
-6.49
-9.51
-12.40
-15.06
-17.65
-20.46
-23.68
-27.26
-30.89
-34.15
-36.72
-38.62
-40.12
-41.62
-43.36
-45.26
-46.89
-47.69
-47.28
-45.69
-43.42
-41.22
-39.71
-39.05
-38.85
-38.29
-36.63
-33.50
-29.15
-24.25
-19.50
-15.28
-11.65
-8.49
-5.87
-4.00
-3.02
-2.59
-1.88
0.14
4.17
10.17
17.38
24.78
31.47
36.99
41.22
44.21
46.04
46.89
47.08
47.05
47.06
46.96
46.23
44.29
41.04
36.98
32.96
29.59
26.75
23.68
19.49
13.84
7.19
0.65
-4.67
-8.19
-10.11
-11.09
-11.80
-12.47
-12.86
-12.49
-11.06
-8.61
-5.40
-1.68
2.65
8.09
15.20
24.22
34.82
46.07
56.79
65.98
73.08
77.97
80.75
81.44
79.96
76.19
70.28
62.67
54.08
45.15
36.21
27.27
18.19
9.00
-0.09
-8.68
-16.46
-23.30
-29.23
-34.35
-38.70
-42.25
-44.98
-46.83
-47.75
-47.65
-46.43
-44.14
-41.08
-37.73
-34.64
-32.04
-29.77
-27.31
-24.13
-20.06
-15.47
-11.11
-7.73
-5.76
-5.14
-5.43
-6.01
-6.34
-6.07
-5.03
-3.27
-1.08
0.86
1.62
0.22
-3.94
-10.61
-18.60
-26.04
-30.99
-32.04
-28.74
-21.69
-12.39
-2.77
5.40
11.05
14.12
15.45
16.18
17.13
18.35
19.20
18.87
17.08
14.30
11.49
9.48
8.44
7.80
6.73
4.76
2.02
-0.83
-3.13
-4.57
-5.19
-5.25
-4.97
-4.36
-3.40
-2.11
-0.65
0.77
1.99
2.96
3.72
4.31
4.65
4.61
4.11
3.20
2.10
1.13
0.57
0.50
0.82
1.33
1.91
2.60
3.58
5.03
6.94
8.99
10.71
11.66
11.66
10.93
9.98
9.34
9.32
9.94
10.99
12.16
13.10
13.47
12.94
11.21
8.18
4.06
-0.59
-5.02
-8.48
-10.50
-10.97
-10.17
-8.61
-6.88
-5.49
-4.84
-5.06
-6.08
-7.65
-9.50
-11.37
-13.09
-14.48
-15.29
-15.23
-14.11
-12.07
-9.56
-7.27
-5.79
-5.34
-5.69
-6.32
-6.66
-6.43
-5.74
-4.93
-4.41
-4.40
-4.83
-5.45
-5.96
-6.18
-6.11
-5.91
-5.76
-5.75
-5.88
-6.00
-6.01
-5.86
-5.65
-5.56
-5.75
-6.27
-7.02
-7.77
-8.30
-8.50
-8.48
-8.49
-8.87
-9.79
-11.16
-12.60
-13.63
-13.85
-13.16
-11.77
-10.06
-8.39
-6.98
-5.88
-5.00
-4.27
-3.65
-3.14
-2.80
-2.68
-2.84
-3.26
-3.84
-4.38
-4.67
-4.56
-4.05
-3.33
-2.64
-2.16
-1.95
-1.91
-1.92
-1.86
-1.79
-1.77
-1.89
-2.12
-2.40
-2.64
-2.81
-2.98
-3.24
-3.67
-4.32
-5.15
-6.09
-7.00
-7.73
-8.10
-8.00
-7.31
-6.05
-4.30
-2.22
0.00
2.19
4.18
5.90
7.31
8.42
9.28
9.93
10.40
10.69
10.83
10.85
10.79
10.64
10.38
9.92
9.18
8.17
7.00
5.85
4.89
4.21
3.80
3.61
3.61
3.82
4.19
4.62
4.91
4.87
4.48
3.92
3.62
3.94
5.08
6.88
9.05
11.26
13.44
15.66
18.05
20.68
23.52
26.60
30.14
34.41
39.51
45.07
50.23
53.98
55.65
55.41
54.25
53.49
54.11
56.20
59.06
61.70
63.47
64.37
64.90
65.50
66.09
65.99
64.35
60.68
55.25
48.88
42.49
36.60
31.09
25.46
19.24
12.34
5.05
-2.17
-8.97
-15.28
-21.20
-26.86
-32.22
-37.09
-41.35
-44.96
-48.09
-50.87
-53.21
-54.78
-55.15
-54.09
-51.87
-49.24
-47.14
-46.30
-46.78
-47.95
-48.65
-47.68
-44.30
-38.56
-31.30
-23.81
-17.36
-12.72
-9.98
-8.65
-8.04
-7.63
-7.26
-7.03
-7.05
-7.23
-7.32
-7.14
-6.82
-6.90
-8.13
-11.10
-15.95
-22.27
-29.15
-35.52
-40.45
-43.36
-44.16
-43.21
-41.06
-38.28
-35.23
-32.01
-28.51
-24.65
-20.48
-16.25
-12.28
-8.83
-6.00
-3.65
-1.56
0.48
2.55
4.58
6.34
7.65
8.41
8.74
8.90
9.16
9.66
10.32
10.89
11.12
10.87
10.26
9.50
8.82
8.24
7.62
6.79
5.65
4.32
3.06
2.07
1.42
0.94
0.41
-0.29
-1.10
-1.78
-2.09
-1.92
-1.26
-0.22
1.09
2.61
4.22
5.79
7.11
8.03
8.52
8.72
8.83
9.00
9.26
9.50
9.64
9.61
9.49
9.38
9.30
9.16
8.79
8.05
6.95
5.65
4.41
3.48
2.94
2.66
2.44
2.07
1.46
0.65
-0.25
-1.19
-2.18
-3.30
-4.55
-5.79
-6.75
-7.19
-6.96
-6.11
-4.84
-3.39
-1.91
-0.51
0.80
2.00
3.12
4.17
5.17
6.16
7.09
7.90
8.45
8.70
8.64
8.37
8.02
7.66
7.36
7.14
7.02
7.02
7.15
7.34
7.50
7.49
7.18
6.54
5.58
4.45
3.31
2.34
1.60
1.03
0.52
-0.12
-0.96
-2.00
-3.11
-4.12
-4.94
-5.54
-5.96
-6.21
-6.23
-5.86
-4.99
-3.60
-1.81
0.13
1.98
3.55
4.79
5.72
6.42
6.91
7.21
7.27
7.09
6.74
6.35
6.07
5.99
6.08
6.23
6.27
6.09
5.67
5.14
4.62
4.19
3.81
3.32
2.56
1.48
0.17
-1.12
-2.18
-2.87
-3.25
-3.48
-3.71
-3.99
-4.24
-4.33
-4.14
-3.66
-2.97
-2.19
-1.38
-0.57
0.26
1.14
2.05
2.93
3.69
4.28
4.63
4.78
4.76
4.68
4.61
4.63
4.72
4.76
4.62
4.22
3.55
2.75
1.97
1.35
0.90
0.53
0.06
-0.62
-1.59
-2.82
-4.23
-5.73
-7.25
-8.70
-10.04
-11.29
-12.56
-13.95
-15.53
-17.22
-18.80
-20.00
-20.61
-20.64
-20.37
-20.21
-20.57
-21.60
-23.16
-24.80
-25.97
-26.28
-25.75
-24.80
-24.18
-24.48
-25.90
-28.11
-30.42
-32.13
-32.84
-32.37
-30.51
-26.89
-21.10
-13.07
-3.46
6.46
15.46
23.10
30.07
37.71
46.95
57.46
67.58
75.26
79.30
80.14
79.50
79.31
80.48
82.57
84.31
84.63
83.34
81.13
78.83
76.74
74.39
70.95
65.86
59.27
52.02
45.07
39.08
34.06
29.56
24.90
19.56
13.36
6.53
-0.46
-7.04
-12.81
-17.63
-21.65
-25.20
-28.62
-31.99
-35.15
-37.67
-39.06
-38.88
-36.91
-33.13
-27.80
-21.47
-14.90
-8.97
-4.45
-1.74
-0.77
-1.00
-1.62
-1.73
-0.59
2.26
6.99
13.49
21.40
30.18
39.16
47.66
55.09
61.01
65.10
67.17
67.17
65.18
61.38
55.95
49.04
40.70
30.90
19.63
7.10
-6.24
-19.73
-32.65
-44.46
-54.86
-63.83
-71.47
-77.97
-83.56
-88.55
-93.34
-98.41
-104.06
-110.17
-116.10
-120.86
-123.60
-124.06
-122.67
-120.18
-116.93
-112.36
-105.06
-93.46
-76.87
-56.17
-33.72
-12.58
4.63
16.43
22.56
23.51
20.00
12.88
3.41
-6.33
-13.61
-15.93
-12.24
-3.86
5.73
12.42
13.43
8.72
1.03
-5.63
-8.09
-5.48
0.70
8.04
14.95
21.63
29.58
40.10
52.85
65.56
75.12
79.25
77.79
72.63
66.47
61.25
57.11
52.70
46.29
37.13
26.15
15.47
7.41
3.25
2.84
4.79
7.34
9.15
9.80
9.60
9.23
9.16
9.47
9.87
9.97
9.56
8.75
7.91
7.44
7.56
8.25
9.23
10.12
10.56
10.30
9.24
7.39
4.85
1.74
-1.78
-5.55
-9.36
-12.97
-16.14
-18.65
-20.36
-21.21
-21.22
-20.49
-19.15
-17.39
-15.44
-13.62
-12.23
-11.55
-11.70
-12.62
-14.12
-15.88
-17.60
-18.95
-19.65
-19.47
-18.21
-15.80
-12.30
-8.05
-3.66
0.03
2.10
1.82
-1.12
-6.53
-13.81
-22.17
-30.89
-39.35
-47.01
-53.24
-57.26
-58.17
-55.20
-48.11
-37.45
-24.56
-11.30
0.46
9.33
14.70
16.81
16.56
15.05
13.27
11.83
11.11
11.25
12.31
14.24
16.78
19.60
22.24
24.18
24.99
24.68
23.62
22.33
21.14
20.10
19.16
18.13
16.72
14.42
11.13
6.97
2.27
-2.70
-7.61
-11.81
-14.79
-16.43
-17.44
-18.25
-19.06
-19.66
-19.64
-18.44
-15.20
-9.42
-1.42
7.31
15.67
22.97
29.07
34.03
35.48
31.94
24.03
17.02
12.40
10.41
9.98
10.62
11.80
12.94
14.02
15.15
16.26
16.64
15.98
14.29
11.91
9.21
6.66
4.99
4.72
5.76
7.16
8.24
8.58
8.18
7.14
5.64
4.04
2.62
1.48
0.43
-0.38
-0.62
0.12
2.03
5.03
8.87
13.14
17.25
20.43
22.15
22.15
20.46
17.34
13.28
8.96
5.13
2.46
1.32
1.54
2.28
2.16
-0.38
-6.34
-15.58
-26.74
-37.62
-46.05
-50.68
-51.48
-49.50
-46.37
-43.49
-41.59
-40.68
-40.25
-39.60
-38.18
-35.76
-32.41
-28.50
-24.58
-21.15
-18.55
-16.81
-15.76
-15.08
-14.52
-13.94
-13.32
-12.64
-11.81
-10.67
-9.09
-7.15
-5.15
-3.46
-2.37
-1.89
-1.72
-1.45
-0.83
0.13
1.08
1.54
1.19
0.07
-1.45
-2.81
-3.55
-3.49
-2.76
-1.71
-0.76
-0.23
-0.26
-0.86
-1.87
-3.03
-4.05
-4.64
-4.71
-4.32
-3.72
-3.23
-3.10
-3.36
-3.87
-4.37
-4.64
-4.65
-4.50
-4.37
-4.31
-4.19
-3.74
-2.69
-0.95
1.37
3.93
6.39
8.53
10.34
11.97
13.59
15.30
17.07
18.80
20.40
21.80
23.01
24.05
24.93
25.61
26.04
26.15
25.94
25.47
24.88
24.28
23.76
23.35
23.02
22.74
22.50
22.32
22.15
21.82
20.97
19.15
15.95
11.16
4.93
-2.21
-9.45
-15.86
-20.66
-23.36
-23.90
-22.62
-20.14
-17.11
-14.17
-11.79
-10.19
-9.34
-8.92
-8.36
-7.05
-4.62
-1.23
2.45
5.38
6.72
6.19
4.22
1.79
-0.10
-0.81
-0.24
1.34
3.61
6.39
9.66
13.29
16.93
19.97
21.80
22.11
21.16
19.64
18.39
18.03
18.72
20.16
21.82
23.23
24.20
24.83
25.40
26.16
27.21
28.45
29.65
30.65
31.47
32.34
33.64
35.71
38.69
42.44
46.57
50.57
54.00
56.61
58.34
59.21
59.25
58.46
56.85
54.56
51.91
49.27
46.87
44.62
42.05
38.54
33.67
27.51
20.70
14.12
8.51
4.13
0.67
-2.53
-6.11
-10.49
-15.73
-21.66
-27.94
-34.21
-40.08
-45.16
-49.17
-52.05
-54.03
-55.52
-56.98
-58.60
-60.29
-61.69
-62.37
-62.07
-60.84
-58.97
-56.95
-55.23
-54.07
-53.50
-53.32
-53.27
-53.11
-52.76
-52.37
-52.19
-52.51
-53.51
-55.13
-57.13
-59.19
-60.98
-62.28
-62.97
-62.97
-62.26
-60.94
-59.22
-57.45
-56.00
-55.04
-54.45
-53.84
-52.72
-50.67
-47.39
-42.63
-36.18
-27.90
-17.88
-6.64
4.98
15.94
25.44
33.11
39.05
43.58
47.02
49.57
51.33
52.51
53.50
54.74
56.44
58.49
60.41
61.61
61.69
60.62
58.63
56.09
53.22
50.04
46.40
42.15
37.28
31.92
26.30
20.57
14.73
8.62
2.07
-5.04
-12.63
-20.49
-28.37
-36.01
-43.16
-49.47
-54.44
-57.60
-58.64
-57.70
-55.29
-51.99
-48.10
-43.32
-36.94
-28.33
-17.46
-5.23
6.82
17.07
24.60
29.46
32.49
34.74
36.85
38.80
40.09
40.18
39.01
37.18
35.72
35.52
36.84
39.10
41.07
41.54
39.90
36.48
32.35
28.75
26.57
25.98
26.53
27.46
28.12
28.09
27.13
25.09
21.85
17.42
12.12
6.60
1.70
-1.90
-3.95
-4.77
-5.07
-5.70
-7.30
-10.18
-14.22
-19.08
-24.23
-29.06
-32.91
-35.07
-34.92
-32.08
-26.52
-18.71
-9.59
-0.43
7.41
12.78
14.97
13.91
10.15
4.68
-1.31
-6.80
-11.15
-14.27
-16.55
-18.70
-21.48
-25.35
-30.25
-35.45
-39.75
-41.78
-40.55
-35.70
-27.66
-17.42
-6.17
5.03
15.39
24.40
31.74
37.26
41.01
43.21
44.14
44.03
42.98
40.89
37.64
33.13
27.39
20.57
12.86
4.53
-4.17
-13.08
-22.20
-31.71
-41.83
-52.44
-62.73
-70.99
-75.09
-73.41
-65.67
-53.40
-39.38
-26.56
-16.89
-10.78
-7.37
-5.32
-3.61
-1.85
-0.04
1.90
4.37
8.05
13.41
20.36
28.13
35.61
41.86
46.50
49.83
52.53
55.30
58.41
61.66
64.59
66.80
68.32
69.52
70.91
72.73
74.67
75.99
75.93
74.11
70.80
66.81
63.10
60.46
59.21
59.18
59.92
60.97
61.91
62.56
62.90
62.99
62.87
62.42
61.29
58.92
54.67
48.14
39.40
29.15
18.44
8.32
-0.53
-7.94
-14.13
-19.44
-24.15
-28.54
-33.03
-38.29
-45.06
-53.83
-64.50
-76.37
-88.25
-98.87
-107.25
-112.80
-115.42
-115.32
-113.04
-109.25
-104.65
-99.71
-94.59
-89.15
-83.16
-76.48
-69.24
-61.80
-54.60
-48.02
-42.31
-37.64
-34.09
-31.64
-30.05
-28.80
-27.18
-24.46
-20.21
-14.49
-7.81
-0.98
5.26
10.42
14.42
17.41
19.63
21.11
21.60
20.74
18.22
14.01
8.45
2.15
-4.11
-9.66
-14.03
-17.04
-18.78
-19.50
-19.40
-18.56
-16.85
-14.15
-10.56
-6.65
-3.37
-1.80
-2.61
-5.69
-10.09
-14.38
-17.19
-17.71
-15.86
-12.13
-7.32
-2.12
2.89
7.33
10.86
13.22
14.24
13.93
12.52
10.48
8.35
6.70
5.94
6.24
7.50
9.37
11.38
13.16
14.57
15.76
17.08
18.90
21.41
24.57
28.03
31.35
34.02
35.64
35.88
34.53
31.57
27.17
21.84
16.30
11.37
7.60
5.10
3.51
2.19
0.55
-1.68
-4.53
-7.86
-11.60
-15.82
-20.54
-25.57
-30.47
-34.60
-37.48
-38.94
-39.26
-39.02
-38.74
-38.70
-38.74
-38.48
-37.49
-35.58
-32.93
-30.05
-27.55
-25.96
-25.52
-26.13
-27.41
-28.84
-29.95
-30.35
-29.82
-28.31
-26.02
-23.38
-21.02
-19.64
-19.73
-21.35
-24.11
-27.28
-30.10
-32.17
-33.56
-34.81
-36.55
-39.17
-42.60
-46.40
-49.98
-52.80
-54.52
-54.99
-54.26
-52.55
-50.21
-47.60
-44.95
-42.23
-39.25
-35.89
-32.33
-29.08
-26.66
-25.17
-23.96
-21.73
-17.03
-8.92
2.44
15.74
28.81
39.39
45.85
47.73
45.79
41.63
37.05
33.44
31.54
31.46
32.99
35.93
40.12
45.33
51.12
56.85
61.88
65.83
68.68
70.63
71.85
72.24
71.47
69.11
64.94
59.06
51.92
44.08
36.10
28.37
21.11
14.41
8.22
2.39
-3.27
-8.87
-14.33
-19.36
-23.53
-26.44
-27.82
-27.65
-26.12
-23.57
-20.48
-17.38
-14.75
-12.75
-11.06
-8.74
-4.67
1.94
10.95
21.16
30.69
37.76
41.38
41.64
39.43
35.96
32.27
28.99
26.35
24.24
22.17
19.21
14.10
5.47
-7.62
-25.11
-45.59
-66.45
-84.44
-96.77
-101.90
-100.11
-93.18
-83.68
-74.04
-65.97
-60.21
-56.74
-55.08
-54.46
-54.00
-52.73
-49.84
-44.90
-37.98
-29.56
-20.25
-10.46
-0.30
10.22
20.92
31.14
39.78
45.54
47.35
44.80
38.43
29.66
20.54
13.16
9.20
9.51
13.99
21.72
31.37
41.47
50.83
58.65
64.67
69.09
72.34
74.89
76.96
78.44
79.01
78.43
76.77
74.52
72.43
71.23
71.34
72.66
74.57
76.15
76.40
74.60
70.44
64.18
56.54
48.51
41.06
34.73
29.58
25.24
21.19
17.13
13.09
9.36
6.23
3.71
1.41
-1.22
-4.71
-9.14
-14.10
-18.73
-22.08
-23.39
-22.35
-19.18
-14.44
-8.82
-2.86
3.13
9.04
14.82
20.32
25.15
28.75
30.57
30.21
27.62
23.11
17.22
10.58
3.73
-3.02
-9.47
-15.57
-21.21
-26.23
-30.38
-33.40
-35.14
-35.58
-34.83
-32.98
-30.03
-25.79
-20.08
-12.86
-4.56
3.84
11.00
15.63
17.05
15.39
11.48
6.41
1.11
-3.94
-8.59
-12.76
-16.33
-19.04
-20.75
-21.57
-21.96
-22.53
-23.75
-25.72
-28.08
-30.13
-31.09
-30.46
-28.19
-24.84
-21.33
-18.66
-17.42
-17.53
-18.27
-18.54
-17.42
-14.50
-9.96
-4.47
1.11
5.95
9.35
10.70
9.61
6.07
0.62
-5.61
-11.35
-15.69
-18.50
-20.41
-22.37
-24.96
-27.91
-30.18
-30.52
-28.12
-23.07
-16.27
-9.00
-2.40
2.84
6.41
8.22
8.21
6.52
3.64
0.56
-1.45
-1.23
1.74
7.09
13.64
19.91
24.69
27.48
28.59
28.88
29.28
30.42
32.44
35.07
37.81
40.24
42.19
43.69
44.99
46.27
47.57
48.76
49.48
49.30
47.75
44.41
39.05
31.68
22.71
12.98
3.58
-4.42
-10.44
-14.55
-17.42
-20.02
-23.16
-27.23
-32.02
-36.91
-41.15
-44.26
-46.03
-46.44
-45.59
-43.69
-41.03
-37.94
-34.68
-31.38
-28.10
-24.78
-21.19
-17.18
-12.80
-8.37
-4.35
-1.17
0.88
1.46
0.46
-1.90
-5.08
-8.51
-11.67
-14.17
-15.71
-15.04
-11.52
-5.47
2.17
10.56
18.97
26.47
31.88
33.98
32.07
25.89
16.06
3.97
-8.57
-19.90
-28.87
-34.96
-38.81
-40.49
-40.32
-38.59
-35.43
-30.82
-24.93
-18.17
-11.30
-5.28
-0.85
1.52
1.96
1.08
-0.32
-1.58
-2.32
-2.45
-1.75
0.11
3.16
7.12
11.36
15.16
17.97
19.69
20.70
21.56
22.69
24.02
25.26
26.16
26.83
27.56
28.65
30.14
31.78
33.25
34.24
34.72
34.77
34.50
33.89
32.86
31.28
29.09
26.26
22.77
18.72
14.38
10.19
6.58
3.73
1.33
-1.33
-5.03
-10.19
-16.51
-23.17
-29.14
-33.69
-36.63
-38.27
-39.16
-39.82
-40.57
-41.54
-42.66
-43.75
-44.47
-44.41
-43.24
-40.87
-37.53
-33.72
-29.99
-26.66
-23.73
-20.98
-18.21
-15.42
-12.82
-10.68
-9.09
-7.86
-6.65
-5.13
-3.12
-0.66
2.19
5.37
8.86
12.56
16.12
19.04
20.79
21.12
20.19
18.52
16.81
15.65
15.33
15.82
16.83
17.99
19.03
19.79
20.22
20.29
19.98
19.32
18.40
17.42
16.60
16.06
15.80
15.60
15.21
14.43
13.27
11.92
10.62
9.55
8.77
8.21
7.79
7.49
7.31
7.20
7.02
6.52
5.48
3.89
1.92
-0.10
-1.84
-3.18
-4.16
-4.98
-5.82
-6.74
-7.65
-8.40
-8.86
-9.01
-8.91
-8.69
-8.47
-8.31
-8.26
-8.30
-8.36
-8.29
-7.95
-7.23
-6.10
-4.65
-3.03
-1.37
0.24
1.82
3.38
4.93
6.41
7.72
8.78
9.56
10.09
10.46
10.70
10.77
10.52
9.79
8.50
6.73
4.73
2.87
1.43
0.55
0.14
-0.03
-0.26
-0.75
-1.61
-2.79
-4.18
-5.60
-6.83
-7.69
-8.14
-8.29
-8.37
-8.62
-9.07
-9.48
-9.45
-8.66
-7.16
-5.46
-4.30
-4.30
-5.55
-7.54
-9.33
-9.99
-8.96
-6.15
-1.81
3.67
9.79
15.96
21.34
25.00
26.21
24.86
21.64
17.82
14.77
13.29
13.33
14.15
14.76
14.53
13.39
11.77
10.27
9.33
9.07
9.41
10.17
11.22
12.44
13.69
14.71
15.08
14.25
11.76
7.34
1.23
-5.91
-13.02
-19.10
-23.49
-26.14
-27.59
-28.65
-30.08
-32.22
-34.91
-37.68
-39.94
-41.24
-41.32
-40.15
-37.90
-34.92
-31.71
-28.84
-26.87
-26.19
-26.84
-28.43
-30.16
-31.02
-30.13
-27.01
-21.86
-15.45
-8.97
-3.58
-0.02
1.59
1.84
1.70
2.20
4.01
7.18
11.16
15.03
17.93
19.50
20.10
20.58
21.88
24.44
27.97
31.57
34.25
35.39
34.99
33.38
30.85
27.24
22.20
15.63
8.20
1.44
-2.93
-3.92
-1.93
1.25
3.35
2.75
-0.68
-5.62
-10.18
-12.93
-13.65
-13.18
-12.77
-13.24
-14.64
-16.42
-17.98
-19.15
-20.22
-21.59
-23.33
-24.95
-25.72
-25.00
-22.77
-19.57
-16.25
-13.46
-11.39
-9.89
-8.81
-8.32
-8.89
-11.05
-14.96
-20.18
-25.79
-30.68
-34.00
-35.38
-34.86
-32.76
-29.53
-25.70
-21.89
-18.80
-17.06
-17.01
-18.59
-21.27
-24.24
-26.65
-27.95
-28.07
-27.48
-26.99
-27.48
-29.44
-32.88
-37.29
-41.84
-45.66
-48.07
-48.70
-47.72
-45.90
-44.47
-44.64
-46.95
-50.75
-54.32
-55.41
-52.29
-44.56
-33.35
-20.68
-8.42
2.58
12.65
22.75
33.78
46.11
59.44
73.07
86.21
98.18
108.37
116.16
120.86
122.10
120.45
117.21
113.96
111.94
111.61
112.46
113.19
112.16
108.32
102.23
95.36
89.15
84.17
79.97
75.34
68.71
58.61
44.67
28.86
14.15
3.15
-2.92
-4.23
-1.78
2.98
8.36
13.25
18.35
24.61
32.44
41.48
51.35
62.21
74.25
86.82
90.25
77.90
50.79
18.00
-10.49
-29.88
-41.06
-46.44
-51.20
-57.77
-64.63
-69.14
-69.64
-66.73
-62.43
-58.28
-54.93
-52.58
-50.93
-49.25
-47.65
-47.27
-49.44
-54.39
-60.59
-65.55
-67.32
-64.98
-58.54
-49.19
-38.95
-30.05
-24.18
-21.94
-22.98
-26.33
-30.57
-34.06
-35.72
-35.50
-34.35
-33.69
-34.66
-37.71
-42.52
-48.12
-53.25
-56.85
-58.31
-57.40
-54.10
-48.52
-41.06
-32.60
-24.37
-17.54
-12.76
-9.76
-7.47
-4.59
-0.24
5.63
12.31
18.74
23.97
27.53
29.36
29.76
29.12
27.83
26.24
24.58
22.92
21.14
19.05
16.47
13.46
10.27
7.38
5.32
4.45
4.95
6.69
9.30
12.14
14.43
15.35
14.24
10.96
6.02
0.59
-3.92
-6.39
-6.47
-4.74
-2.33
-0.38
0.57
0.79
1.15
2.55
5.45
9.55
13.91
17.27
18.56
17.21
13.33
7.68
1.45
-4.18
-8.27
-10.43
-10.76
-9.68
-7.70
-5.27
-2.81
-0.68
0.74
1.23
0.81
-0.16
-1.14
-1.59
-1.23
-0.18
1.22
2.54
3.43
3.86
4.07
4.47
5.33
6.64
8.10
9.30
9.82
9.37
7.83
5.42
2.53
-0.34
-2.79
-4.60
-5.61
-5.92
-6.03
-6.54
-7.86
-9.91
-12.21
-14.06
-14.90
-13.92
-11.02
-6.88
-2.68
0.67
3.01
4.83
6.85
9.74
15.02
23.36
34.02
45.29
55.56
63.96
70.18
74.18
76.01
78.00
82.08
88.78
97.13
105.83
113.88
120.45
124.84
126.64
128.61
133.11
140.55
149.35
157.76
164.96
171.02
176.42
165.24
130.18
76.80
19.89
-28.45
-64.09
-88.44
-104.72
-115.87
-123.94
-127.62
-125.97
-119.69
-111.85
-105.15
-100.77
-98.62
-97.98
-97.99
-95.94
-90.16
-81.06
-70.80
-61.58
-54.37
-49.34
-46.11
-44.10
-41.46
-36.95
-30.57
-23.45
-16.78
-11.31
-7.38
-5.12
-4.52
-4.78
-5.11
-5.08
-4.69
-4.01
-3.10
-2.07
-1.18
-0.73
-0.70
-1.00
-1.50
-2.12
-2.73
-3.19
-3.45
-3.57
-3.61
-3.62
-3.62
-3.54
-3.39
-3.21
-3.10
-3.18
-3.43
-3.73
-3.88
-3.76
-3.34
-2.75
-2.18
-1.77
-1.58
-1.55
-1.56
-1.55
-1.47
-1.37
-1.32
-1.37
-1.58
-1.97
-2.58
-3.41
-4.47
-5.72
-7.16
-8.78
-10.60
-12.59
-14.68
-16.67
-18.32
-19.42
-19.84
-19.65
-19.02
-18.21
-17.33
-16.41
-15.35
-14.06
-12.52
-10.88
-9.39
-8.25
-7.52
-7.10
-6.80
-6.45
-6.09
-5.83
-5.83
-6.17
-6.69
-7.16
-7.32
-7.10
-6.60
-6.06
-5.73
-5.74
-6.04
-6.48
-6.89
-7.13
-7.19
-7.09
-6.93
-6.80
-6.76
-6.87
-7.13
-7.49
-7.85
-8.09
-8.09
-7.73
-6.96
-5.82
-4.37
-2.73
-1.02
0.67
2.27
3.76
5.13
6.38
7.51
8.47
9.26
9.84
10.23
10.44
10.52
10.50
10.41
10.25
9.98
9.52
8.85
7.99
7.01
6.03
5.16
4.44
3.85
3.31
2.74
2.09
1.41
0.77
0.20
-0.33
-0.92
-1.70
-2.68
-3.80
-4.85
-5.60
-5.91
-5.70
-5.03
-3.96
-2.56
-0.90
0.96
2.87
4.65
6.14
7.25
7.95
8.31
8.40
8.28
8.00
7.64
7.27
6.99
6.84
6.82
6.86
6.93
6.96
6.89
6.66
6.17
5.39
4.35
3.20
2.16
1.39
0.99
0.86
0.82
0.66
0.20
-0.58
-1.64
-2.84
-4.05
-5.15
-6.05
-6.60
-6.67
-6.11
-4.86
-3.02
-0.85
1.33
3.28
4.93
6.42
7.97
9.67
11.44
12.93
13.73
13.51
12.22
10.09
7.50
4.92
2.69
1.03
0.04
-0.30
-0.05
0.67
1.66
2.68
3.40
3.54
2.89
1.41
-0.74
-3.21
-5.58
-7.42
-8.45
-8.56
-7.83
-6.51
-4.91
-3.34
-2.00
-0.97
-0.16
0.58
1.40
2.35
3.35
4.27
4.95
5.31
5.36
5.10
4.56
3.81
2.99
2.41
2.44
3.41
5.42
8.24
11.31
13.91
15.44
15.50
13.99
11.07
7.04
2.31
-2.69
-7.47
-11.65
-14.91
-17.13
-18.30
-18.54
-17.96
-16.65
-14.67
-12.15
-9.33
-6.58
-4.29
-2.71
-1.74
-0.95
0.34
2.74
6.45
11.20
16.28
20.87
24.42
26.79
28.18
28.93
29.23
29.04
28.20
26.70
24.78
22.91
21.61
21.17
21.59
22.51
23.44
23.89
23.52
22.21
20.13
17.62
15.16
13.23
12.12
11.83
11.97
11.84
10.66
7.88
3.42
-2.24
-8.20
-13.42
-17.03
-18.50
-17.80
-15.25
-11.46
-7.15
-2.95
0.71
3.69
6.20
8.56
11.05
13.67
16.09
17.81
18.39
17.67
15.83
13.25
10.27
7.10
3.78
0.37
-2.99
-6.00
-8.39
-9.99
-10.90
-11.38
-11.78
-12.34
-13.15
-14.17
-15.30
-16.43
-17.52
-18.54
-19.50
-20.41
-21.26
-22.03
-22.63
-22.89
-22.63
-21.73
-20.19
-18.22
-16.17
-14.38
-13.05
-12.16
-11.56
-11.03
-10.43
-9.78
-9.23
-8.95
-9.09
-9.70
-10.72
-11.99
-13.34
-14.68
-15.97
-17.33
-18.91
-20.83
-23.11
-25.60
-28.05
-30.22
-32.01
-33.46
-34.72
-35.84
-36.80
-37.50
-37.91
-38.21
-38.73
-39.84
-41.68
-44.08
-46.50
-48.32
-48.99
-48.30
-46.44
-43.94
-41.50
-39.76
-39.10
-39.50
-40.47
-41.13
-40.57
-38.15
-33.90
-28.66
-23.89
-21.27
-22.09
-26.78
-34.73
-44.47
-54.00
-61.16
-64.00
-61.19
-52.49
-39.13
-23.63
-9.07
2.11
9.21
13.50
17.48
23.49
32.41
43.29
53.95
62.24
67.16
69.11
69.41
69.34
69.37
69.14
67.90
65.17
61.18
56.69
52.57
49.21
46.34
43.25
39.41
34.91
30.62
27.81
27.57
30.16
34.89
40.46
45.56
49.27
51.22
51.52
50.61
49.14
47.66
46.60
46.10
46.02
46.05
45.75
44.87
43.61
42.72
42.97
44.95
48.80
54.16
60.20
65.55
68.95
69.68
67.96
64.04
58.19
50.59
41.48
31.08
19.00
4.98
-10.74
-26.70
-41.85
-55.18
-65.51
-71.55
-72.55
-69.99
-66.55
-65.09
-66.54
-71.63
-79.86
-89.55
-98.20
-103.80
-106.89
-109.16
-112.25
-115.70
-120.09
-126.28
-134.87
-145.13
-147.02
-132.57
-99.68
-61.02
-20.94
17.00
49.66
71.60
79.68
74.81
60.51
42.29
25.78
16.00
13.52
16.20
21.36
27.88
36.04
45.54
55.57
65.05
74.02
81.75
87.66
91.58
93.69
93.82
90.61
82.64
69.59
53.20
35.35
17.65
0.95
-14.41
-28.25
-40.37
-50.08
-56.39
-58.53
-57.10
-53.48
-48.82
-43.08
-35.14
-23.79
-8.90
8.37
25.50
39.53
48.36
51.57
50.48
47.36
44.44
42.92
43.50
45.84
49.12
52.47
55.26
57.10
57.79
57.20
54.77
51.02
46.40
41.67
37.81
35.49
34.65
34.29
32.75
27.80
19.10
6.91
-7.39
-21.75
-34.06
-42.83
-47.53
-45.20
-41.32
-36.54
-31.36
-25.31
-17.39
-7.01
5.21
17.10
25.51
26.97
20.65
7.31
-10.43
-29.18
-46.10
-59.84
-70.66
-79.86
-89.13
-98.38
-106.53
-111.38
-110.47
-102.35
-87.70
-69.51
-52.32
-40.96
-38.08
-43.93
-56.01
-70.12
-81.79
-87.68
-86.21
-77.45
-62.63
-43.00
-19.87
5.40
31.19
55.56
76.59
92.96
104.29
111.00
113.99
113.87
110.91
105.30
97.67
89.17
81.13
74.30
68.49
62.81
56.64
50.16
44.50
41.04
40.48
42.16
44.25
44.60
41.80
35.86
27.85
19.19
10.87
3.10
-4.54
-12.46
-20.67
-28.38
-34.07
-36.37
-34.73
-29.75
-23.08
-16.83
-12.75
-11.83
-13.80
-16.92
-19.29
-19.63
-17.49
-13.41
-8.78
-5.49
-5.90
-11.65
-22.17
-35.83
-50.49
-63.57
-72.87
-77.30
-77.12
-74.42
-71.53
-68.85
-66.45
-64.59
-62.97
-61.15
-58.85
-56.05
-53.98
-53.65
-53.87
-54.16
-55.42
-58.65
-64.51
-72.82
-75.83
-67.49
-55.65
-43.19
-27.65
-9.56
9.74
28.85
46.61
62.15
73.68
79.72
81.38
79.96
76.38
72.07
68.35
65.81
64.29
62.33
58.66
54.11
49.58
45.29
41.51
38.36
35.74
33.45
30.80
27.32
23.75
20.68
18.11
16.04
14.36
12.89
11.48
9.81
7.73
5.72
4.13
2.95
2.08
1.33
0.59
-0.17
-0.89
-1.45
-1.57
-1.09
-0.14
1.08
2.33
3.37
4.01
4.13
3.68
2.74
1.45
0.03
-1.33
-2.51
-3.47
-4.28
-4.97
-5.58
-6.06
-6.40
-6.61
-6.74
-6.92
-7.22
-7.71
-8.35
-9.10
-9.90
-10.67
-11.33
-11.80
-11.99
-11.89
-11.57
-11.21
-11.01
-11.15
-11.65
-12.39
-13.07
-13.35
-12.95
-11.72
-9.69
-7.08
-4.24
-1.50
0.84
2.62
3.80
4.45
4.74
4.83
4.87
4.96
5.12
5.31
5.50
5.65
5.77
5.90
6.02
6.10
6.07
5.88
5.56
5.18
4.81
4.46
4.07
3.51
2.71
1.67
0.51
-0.59
-1.54
-2.33
-3.07
-3.87
-4.76
-5.63
-6.28
-6.48
-6.09
-5.08
-3.61
-1.88
-0.14
1.42
2.68
3.61
4.23
4.57
4.70
4.67
4.52
4.27
3.95
3.62
3.33
3.15
3.08
3.09
3.06
2.88
2.45
1.77
0.90
-0.05
-0.95
-1.72
-2.36
-2.92
-3.45
-4.02
-4.69
-5.50
-6.43
-7.42
-8.34
-9.05
-9.41
-9.36
-8.90
-8.11
-7.11
-5.97
-4.77
-3.50
-2.16
-0.79
0.55
1.70
2.53
2.93
2.90
2.57
2.10
1.72
1.52
1.54
1.72
2.00
2.34
2.72
3.10
3.43
3.62
3.60
3.39
3.05
2.67
2.28
1.87
1.39
0.82
0.15
-0.57
-1.31
-2.11
-2.94
-3.76
-4.40
-4.62
-4.19
-3.06
-1.38
0.54
2.33
3.76
4.78
5.45
5.90
6.21
6.37
6.39
6.29
6.15
6.08
6.15
6.30
6.44
6.42
6.16
5.68
5.10
4.54
4.12
3.84
3.61
3.33
2.92
2.37
1.77
1.21
0.74
0.30
-0.22
-0.97
-1.98
-3.18
-4.37
-5.28
-5.67
-5.40
-4.51
-3.13
-1.49
0.19
1.80
3.26
4.55
5.59
6.29
6.56
6.39
5.88
5.24
4.72
4.51
4.67
5.11
5.64
6.05
6.20
6.03
5.62
5.10
4.60
4.18
3.83
3.46
2.98
2.34
1.57
0.72
-0.18
-1.15
-2.24
-3.47
-4.75
-5.93
-6.75
-6.97
-6.42
-5.08
-3.12
-0.86
1.33
3.14
4.39
5.02
5.10
4.75
4.08
3.23
2.37
1.69
1.38
1.47
1.86
2.29
2.53
2.41
1.96
1.32
0.68
0.16
-0.24
-0.60
-0.99
-1.42
-1.85
-2.22
-2.53
-2.82
-3.22
-3.82
-4.60
-5.41
-6.04
-6.24
-5.90
-5.05
-3.87
-2.53
-1.19
0.08
1.27
2.34
3.26
3.96
4.38
4.52
4.43
4.17
3.86
3.58
3.41
3.42
3.64
4.01
4.44
4.76
4.80
4.46
3.73
2.68
1.47
0.29
-0.69
-1.38
-1.79
-2.02
-2.22
-2.55
-3.15
-4.01
-5.06
-6.14
-7.05
-7.64
-7.82
-7.56
-6.90
-5.85
-4.51
-2.92
-1.18
0.66
2.47
4.16
5.58
6.55
6.97
6.81
6.16
5.23
4.28
3.50
2.99
2.72
2.64
2.67
2.80
2.99
3.23
3.41
3.45
3.26
2.87
2.39
1.96
1.65
1.47
1.29
0.95
0.30
-0.71
-2.09
-3.73
-5.44
-7.05
-8.37
-9.24
-9.57
-9.29
-8.41
-6.92
-4.90
-2.48
0.17
2.80
5.17
7.08
8.43
9.20
9.47
9.34
8.95
8.44
7.93
7.51
7.24
7.11
7.08
7.05
6.93
6.64
6.15
5.45
4.53
3.42
2.17
0.87
-0.35
-1.32
-1.90
-2.00
-1.66
-1.03
-0.39
-0.05
-0.26
-1.09
-2.43
-3.98
-5.32
-6.02
-5.80
-4.62
-2.69
-0.48
1.47
2.73
3.13
2.81
2.13
1.47
1.08
0.98
1.01
0.99
0.89
0.80
0.88
1.20
1.65
2.04
2.19
2.06
1.78
1.58
1.58
1.78
2.02
2.12
1.96
1.60
1.19
0.89
0.74
0.69
0.57
0.23
-0.38
-1.21
-2.17
-3.14
-4.05
-4.83
-5.44
-5.84
-5.99
-5.83
-5.36
-4.59
-3.60
-2.49
-1.40
-0.48
0.14
0.39
0.26
-0.12
-0.60
-0.99
-1.18
-1.13
-0.87
-0.50
-0.11
0.21
0.43
0.54
0.58
0.54
0.43
0.24
-0.04
-0.37
-0.68
-0.89
-0.94
-0.84
-0.63
-0.41
-0.24
-0.17
-0.22
-0.41
-0.72
-1.12
-1.56
-1.94
-2.12
-2.02
-1.58
-0.87
-0.00
0.85
1.57
2.12
2.53
2.87
3.18
3.43
3.54
3.40
3.04
2.55
2.11
1.89
1.92
2.11
2.29
2.33
2.20
1.95
1.68
1.44
1.19
0.87
0.45
-0.01
-0.35
-0.46
-0.31
-0.03
0.18
0.11
-0.33
-1.08
-1.97
-2.73
-3.16
-3.10
-2.50
-1.42
-0.01
1.49
2.87
3.97
4.70
5.08
5.15
4.97
4.57
3.95
3.12
2.14
1.06
-0.06
-1.13
-2.12
-3.00
-3.82
-4.63
-5.48
-6.38
-7.23
-7.87
-8.16
-8.08
-7.78
-7.55
-7.67
-8.28
-9.33
-10.60
-11.86
-12.95
-13.85
-14.60
-15.26
-15.79
-16.12
-16.15
-15.82
-15.17
-14.28
-13.25
-12.11
-10.80
-9.16
-7.02
-4.26
-0.90
2.83
6.50
9.59
11.64
12.47
12.11
10.83
8.99
6.93
4.84
2.75
0.60
-1.65
-3.99
-6.37
-8.86
-11.56
-14.48
-17.59
-20.76
-23.65
-25.82
-26.76
-26.25
-24.35
-21.24
-16.75
-10.73
-3.09
6.03
16.27
27.17
38.00
48.06
56.88
64.77
72.08
78.80
84.64
89.17
92.15
93.25
92.24
89.02
84.33
78.70
72.19
64.60
55.74
45.86
35.21
24.02
9.29
-8.55
-26.27
-40.09
-48.14
-52.21
-54.18
-55.60
-57.01
-58.73
-60.21
-60.96
-60.85
-59.99
-58.51
-56.37
-53.69
-50.76
-47.85
-44.60
-40.75
-36.36
-31.72
-27.22
-23.01
-19.29
-16.20
-13.74
-11.47
-9.08
-6.62
-4.34
-2.55
-1.32
-0.61
-0.31
-0.29
-0.26
-0.12
0.06
0.24
0.40
0.62
0.82
0.84
0.51
-0.22
-1.35
-2.79
-4.19
-5.19
-5.65
-5.75
-5.84
-6.18
-6.88
-7.85
-8.98
-9.80
-9.88
-9.18
-7.94
-6.51
-4.98
-3.20
-0.93
2.03
6.24
12.15
19.81
28.74
38.32
48.13
57.92
67.46
73.52
73.27
66.03
54.06
40.90
29.28
20.53
14.81
11.67
9.70
8.32
7.38
6.82
6.32
5.41
3.54
0.53
-3.58
-8.56
-13.54
-17.60
-20.16
-21.25
-21.36
-21.11
-21.03
-21.45
-22.45
-23.55
-24.17
-23.90
-22.71
-20.90
-18.85
-16.93
-15.40
-14.37
-13.65
-12.91
-11.81
-10.11
-7.70
-4.63
-1.18
2.15
4.76
6.31
6.81
6.71
6.68
7.29
8.72
10.65
12.51
13.90
14.99
16.54
19.52
24.61
31.75
40.22
48.96
56.84
62.72
65.24
62.73
53.76
38.10
17.66
-3.50
-20.39
-29.14
-28.73
-21.39
-11.36
-2.84
1.87
2.89
1.92
0.80
0.34
0.22
-0.36
-1.87
-4.02
-6.00
-6.95
-6.54
-5.04
-3.24
-2.02
-2.09
-3.69
-6.49
-9.69
-12.25
-13.27
-12.30
-9.44
-5.20
-0.23
5.00
10.34
15.78
21.21
26.22
30.14
32.19
31.90
29.33
25.06
20.01
15.13
11.10
8.31
6.83
6.63
7.73
10.19
14.11
19.43
25.73
32.22
37.88
41.70
43.01
41.68
38.14
33.11
27.39
21.52
15.80
10.31
5.10
0.30
-3.90
-7.38
-10.16
-12.43
-14.45
-16.41
-18.34
-20.11
-21.57
-22.64
-23.41
-24.03
-24.69
-25.45
-26.24
-26.90
-27.29
-27.34
-27.11
-26.76
-26.44
-26.22
-26.04
-25.80
-25.38
-24.70
-23.77
-22.58
-21.16
-19.50
-17.61
-15.59
-13.67
-12.17
-11.38
-11.46
-12.29
-13.56
-14.85
-15.84
-16.30
-16.18
-15.53
-14.43
-13.01
-11.46
-10.04
-9.07
-8.79
-9.33
-10.57
-12.33
-14.34
-16.45
-18.64
-20.97
-23.49
-26.15
-28.84
-31.35
-33.53
-35.34
-36.85
-38.17
-39.44
-40.65
-41.66
-42.23
-42.07
-40.97
-38.81
-35.70
-31.85
-27.53
-23.00
-18.46
-14.04
-9.85
-6.00
-2.66
0.06
2.09
3.52
4.51
5.23
5.82
6.31
6.63
6.72
6.55
6.16
5.67
5.21
4.92
4.87
5.02
5.27
5.45
5.40
5.02
4.30
3.32
2.24
1.22
0.41
-0.12
-0.33
-0.24
0.05
0.48
0.93
1.32
1.60
1.73
1.75
1.68
1.59
1.54
1.55
1.59
1.60
1.55
1.47
1.46
1.67
2.21
3.12
4.26
5.34
6.09
6.27
5.83
4.89
3.67
2.44
1.40
0.65
0.18
-0.07
-0.20
-0.32
-0.53
-0.90
-1.41
-1.99
-2.51
-2.85
-2.96
-2.87
-2.68
-2.51
-2.38
-2.25
-2.01
-1.59
-0.98
-0.31
0.27
0.61
0.68
0.52
0.24
-0.08
-0.43
-0.86
-1.43
-2.14
-2.90
-3.60
-4.11
-4.37
-4.42
-4.39
-4.39
-4.54
-4.89
-5.44
-6.15
-6.95
-7.74
-8.43
-8.99
-9.46
-9.90
-10.48
-11.27
-12.33
-13.62
-15.02
-16.39
-17.62
-18.61
-19.38
-19.98
-20.54
-21.15
-21.87
-22.70
-23.53
-24.24
-24.70
-24.82
-24.53
-23.73
-22.36
-20.32
-17.58
-14.16
-10.13
-5.59
-0.64
4.58
9.91
15.16
20.10
24.54
28.35
31.52
34.06
36.01
37.41
38.27
38.64
38.61
38.30
37.79
37.15
36.32
35.19
33.69
31.72
29.30
26.49
23.45
20.32
17.28
14.47
11.97
9.78
7.81
5.94
4.06
2.13
0.22
-1.53
-2.96
-3.98
-4.59
-4.86
-4.83
-4.59
-4.24
-3.91
-3.77
-3.92
-4.32
-4.75
-4.93
-4.63
-3.81
-2.59
-1.23
0.02
1.04
1.85
2.51
3.05
3.44
3.61
3.50
3.14
2.64
2.14
1.76
1.56
1.49
1.42
1.21
0.78
0.14
-0.61
-1.32
-1.90
-2.35
-2.72
-3.06
-3.39
-3.66
-3.79
-3.73
-3.47
-3.06
-2.58
-2.10
-1.69
-1.38
-1.15
-0.98
-0.79
-0.52
-0.18
0.18
0.43
0.47
0.31
0.04
-0.16
-0.18
-0.05
0.04
-0.07
-0.49
-1.19
-1.97
-2.71
-3.34
-3.94
-4.60
-5.34
-6.04
-6.56
-6.79
-6.75
-6.59
-6.45
-6.38
-6.30
-6.07
-5.62
-4.97
-4.27
-3.64
-3.12
-2.61
-1.91
-0.87
0.58
2.36
4.36
6.43
8.49
10.47
12.26
13.72
14.67
14.97
14.64
13.84
12.84
11.85
10.95
10.07
9.00
7.61
5.88
3.96
2.14
0.71
-0.15
-0.38
-0.12
0.42
0.99
1.36
1.41
1.11
0.55
-0.12
-0.75
-1.19
-1.35
-1.17
-0.69
-0.01
0.70
1.17
1.16
0.54
-0.66
-2.23
-3.81
-5.04
-5.64
-5.48
-4.58
-3.10
-1.18
0.94
3.00
4.72
5.82
6.18
5.91
5.33
4.85
4.78
5.16
5.72
6.01
5.68
4.57
2.80
0.66
-1.56
-3.71
-5.71
-7.56
-9.22
-10.56
-11.50
-12.05
-12.29
-12.38
-12.44
-12.50
-12.51
-12.46
-12.42
-12.56
-13.02
-13.79
-14.69
-15.40
-15.64
-15.34
-14.62
-13.81
-13.20
-12.92
-12.91
-12.98
-12.91
-12.60
-12.02
-11.27
-10.46
-9.67
-8.93
-8.24
-7.57
-6.93
-6.31
-5.75
-5.20
-4.58
-3.73
-2.53
-0.90
1.09
3.26
5.39
7.29
8.91
10.33
11.72
13.21
14.77
16.25
17.36
17.87
17.68
16.88
15.67
14.28
12.87
11.47
10.03
8.46
6.75
4.96
3.22
1.68
0.51
-0.14
-0.18
0.45
1.66
3.27
4.98
6.52
7.73
8.65
9.43
10.27
11.20
12.07
12.59
12.42
11.35
9.38
6.67
3.42
-0.20
-4.09
-8.17
-12.24
-16.03
-19.31
-21.99
-24.20
-26.19
-28.06
-29.58
-30.22
-29.34
-26.64
-22.41
-17.56
-13.24
-10.41
-9.45
-10.15
-12.00
-14.45
-17.21
-20.19
-23.25
-26.07
-28.03
-28.51
-27.12
-23.91
-19.37
-14.22
-9.12
-4.46
-0.41
3.05
5.92
8.15
9.68
10.49
10.71
10.56
10.26
10.03
10.01
10.30
10.96
12.00
13.31
14.67
15.84
16.61
16.94
16.95
16.83
16.78
16.87
17.03
17.15
17.17
17.05
16.87
16.70
16.56
16.40
16.12
15.64
14.99
14.24
13.55
12.93
12.25
11.19
9.44
6.89
3.79
0.69
-1.72
-2.95
-2.96
-2.15
-1.17
-0.64
-0.83
-1.60
-2.49
-2.99
-2.78
-1.82
-0.36
1.24
2.65
3.69
4.35
4.73
4.99
5.28
5.76
6.48
7.41
8.41
9.21
9.46
8.85
7.22
4.63
1.40
-1.96
-4.87
-6.84
-7.64
-7.33
-6.30
-5.17
-4.56
-4.94
-6.47
-8.98
-12.05
-15.20
-18.00
-20.22
-21.81
-22.83
-23.41
-23.61
-23.45
-22.90
-21.88
-20.34
-18.27
-15.72
-12.80
-9.64
-6.40
-3.25
-0.32
2.30
4.57
6.53
8.21
9.63
10.81
11.73
12.39
12.80
13.03
13.15
13.23
13.32
13.50
13.81
14.31
14.99
15.76
16.45
16.89
16.94
16.57
15.89
15.03
14.14
13.28
12.45
11.56
10.56
9.38
8.00
6.45
4.76
3.00
1.27
-0.27
-1.45
-2.08
-2.06
-1.37
-0.10
1.60
3.64
5.92
8.39
10.95
13.45
15.73
17.62
19.06
20.06
20.68
20.99
20.98
20.65
20.03
19.19
18.21
17.20
16.17
15.08
13.83
12.32
10.52
8.49
6.34
4.22
2.25
0.53
-0.95
-2.23
-3.38
-4.49
-5.62
-6.77
-7.90
-8.98
-9.97
-10.90
-11.84
-12.92
-14.26
-15.90
-17.77
-19.70
-21.41
-22.61
-23.05
-22.59
-21.28
-19.32
-17.04
-14.75
-12.64
-10.74
-8.96
-7.16
-5.29
-3.44
-1.79
-0.48
0.43
1.04
1.54
2.14
2.95
4.00
5.22
6.51
7.80
9.04
10.20
11.27
12.20
12.92
13.35
13.41
13.11
12.50
11.69
10.81
9.93
9.05
8.16
7.24
6.28
5.29
4.29
3.23
2.07
0.71
-0.86
-2.63
-4.52
-6.41
-8.13
-9.49
-10.31
-10.42
-9.77
-8.42
-6.57
-4.46
-2.30
-0.14
2.04
4.28
6.54
8.63
10.32
11.46
12.06
12.29
12.40
12.57
12.87
13.28
13.73
14.12
14.35
14.24
13.67
12.57
11.04
9.34
7.74
6.41
5.38
4.58
3.91
3.36
2.92
2.57
2.19
1.64
0.83
-0.20
-1.30
-2.28
-3.07
-3.72
-4.38
-5.24
-6.39
-7.79
-9.30
-10.72
-11.92
-12.80
-13.35
-13.53
-13.31
-12.61
-11.34
-9.50
-7.21
-4.78
-2.66
-1.31
-1.05
-1.90
-3.57
-5.52
-7.21
-8.29
-8.72
-8.75
-8.76
-9.08
-9.79
-10.78
-11.87
-12.83
-13.53
-13.82
-13.54
-12.53
-10.81
-8.66
-6.69
-5.51
-5.42
-6.09
-6.60
-5.77
-2.69
2.84
10.26
18.53
26.57
33.66
39.60
44.56
48.82
52.56
55.81
58.50
60.67
62.39
63.71
64.59
64.77
63.89
61.57
57.67
52.46
46.68
41.22
36.78
33.54
31.20
29.19
26.96
24.29
21.25
18.20
15.43
12.95
10.54
7.88
4.75
1.03
-3.25
-7.99
-12.74
-17.14
-21.02
-24.24
-26.37
-26.78
-24.81
-20.33
-14.02
-6.63
0.60
6.41
10.20
12.45
14.20
16.44
19.26
21.90
24.32
26.45
28.18
29.53
30.85
32.42
34.43
36.45
37.60
38.33
38.93
39.22
38.84
37.80
36.22
34.35
31.89
20.20
-3.28
-33.49
-61.55
-81.49
-91.12
-94.16
-93.31
-89.84
-84.17
-75.36
-63.44
-50.25
-38.64
-30.95
-28.20
-30.69
-36.72
-43.21
-46.35
-44.31
-37.70
-28.55
-18.92
-10.50
-3.60
1.79
5.70
8.81
11.57
14.04
15.99
17.41
18.53
19.41
20.34
21.21
21.84
21.75
20.43
17.53
13.15
7.70
1.88
-3.52
-7.98
-11.14
-13.02
-13.95
-14.51
-15.35
-16.95
-19.44
-22.52
-25.78
-28.86
-31.56
-33.82
-35.61
-36.78
-37.09
-36.32
-34.48
-31.94
-29.39
-27.45
-26.46
-26.30
-26.52
-26.70
-26.66
-26.55
-26.71
-27.41
-28.67
-30.26
-31.88
-33.34
-34.57
-35.41
-35.40
-33.76
-29.56
-22.25
-12.07
-0.13
11.83
22.13
29.69
34.34
36.73
37.90
38.71
39.62
40.59
41.31
41.46
40.94
39.89
38.62
37.48
36.69
36.31
36.23
36.22
36.09
35.75
35.33
35.14
35.54
36.76
38.75
41.09
43.13
44.22
43.91
42.09
38.94
34.76
29.90
24.63
19.20
13.77
8.46
3.18
-2.33
-8.35
-14.93
-21.66
-27.66
-31.82
-33.28
-31.85
-28.13
-23.28
-18.58
-14.97
-12.82
-12.12
-12.59
-13.98
-16.05
-18.54
-21.12
-23.51
-25.58
-27.49
-29.58
-32.15
-35.24
-38.58
-41.81
-44.64
-46.98
-48.79
-49.92
-50.09
-49.07
-46.87
-43.78
-40.13
-36.06
-31.46
-26.22
-20.59
-15.41
-11.88
-11.17
-13.90
-19.89
-28.39
-38.43
-49.16
-59.89
-69.87
-78.09
-83.24
-84.20
-80.57
-73.14
-63.76
-54.71
-47.77
-43.48
-40.95
-38.35
-33.91
-26.77
-17.34
-6.83
3.58
13.46
23.28
33.92
45.85
58.57
70.59
79.97
85.17
85.66
82.15
76.20
69.50
63.27
57.97
53.46
49.32
45.24
41.07
36.81
32.39
27.62
22.35
16.69
11.20
6.76
4.16
3.60
4.51
5.77
6.28
5.54
3.84
1.97
0.70
0.36
0.78
1.54
2.37
3.24
4.21
5.19
5.86
5.82
4.92
3.42
1.91
0.94
0.78
1.27
2.04
2.73
3.19
3.41
3.44
3.26
2.85
2.24
1.49
0.71
-0.07
-0.89
-1.77
-2.66
-3.41
-3.89
-4.07
-4.08
-4.07
-4.12
-4.14
-3.92
-3.31
-2.34
-1.22
-0.17
0.77
1.81
3.28
5.42
8.11
10.90
13.23
14.67
15.13
14.90
14.47
14.24
14.37
14.75
15.08
15.12
14.77
14.18
13.59
13.24
13.18
13.28
13.32
13.09
12.55
11.85
11.30
11.19
11.68
12.75
14.11
15.41
16.29
16.55
16.15
15.21
13.90
12.41
10.85
9.35
8.06
7.16
6.86
7.29
8.43
10.01
11.57
12.70
13.17
13.14
13.12
13.79
15.59
18.56
22.21
25.73
28.27
29.28
28.57
26.31
22.82
18.44
13.44
8.07
2.59
-2.79
-8.03
-13.37
-19.23
-25.99
-33.74
-42.08
-50.20
-57.20
-62.46
-65.92
-67.97
-69.17
-69.80
-69.62
-68.00
-64.33
-58.50
-51.08
-43.14
-35.71
-29.38
-24.12
-19.51
-15.23
-11.39
-8.49
-7.06
-7.25
-8.69
-10.64
-12.27
-13.00
-12.52
-10.75
-7.77
-3.80
0.59
4.53
7.07
7.45
5.51
1.70
-3.09
-7.85
-11.64
-13.63
-13.17
-9.85
-3.69
4.63
13.82
22.29
28.63
32.07
32.68
31.20
28.57
25.54
22.42
19.13
15.39
11.04
6.21
1.31
-3.08
-6.48
-8.70
-9.81
-10.15
-10.06
-9.70
-9.12
-8.25
-7.16
-6.06
-5.26
-5.05
-5.50
-6.46
-7.62
-8.60
-9.15
-9.16
-8.67
-7.78
-6.63
-5.30
-3.81
-2.10
-0.11
2.18
4.70
7.25
9.54
11.32
12.41
12.78
12.51
11.66
10.30
8.46
6.24
3.87
1.63
-0.23
-1.58
-2.51
-3.23
-4.03
-5.10
-6.51
-8.20
-10.01
-11.75
-13.26
-14.39
-15.07
-15.26
-14.96
-14.19
-12.91
-11.09
-8.72
-5.89
-2.80
0.25
3.00
5.29
7.10
8.51
9.60
10.44
11.01
11.25
11.15
10.72
10.07
9.38
8.81
8.52
8.52
8.76
9.12
9.48
9.79
10.07
10.32
10.47
10.40
9.96
9.10
7.90
6.55
5.25
4.10
3.07
2.04
0.89
-0.43
-1.87
-3.36
-4.82
-6.23
-7.58
-8.84
-9.93
-10.70
-11.01
-10.77
-9.99
-8.74
-7.18
-5.47
-3.73
-2.03
-0.36
1.29
2.87
4.26
5.28
5.80
5.74
5.24
4.54
3.95
3.73
3.98
4.61
5.34
5.86
5.88
5.31
4.24
2.94
1.74
0.91
0.52
0.50
0.64
0.75
0.71
0.50
0.14
-0.31
-0.88
-1.64
-2.65
-3.91
-5.34
-6.77
-8.01
-8.89
-9.38
-9.55
-9.54
-9.40
-9.08
-8.45
-7.34
-5.74
-3.83
-1.93
-0.42
0.48
0.79
0.75
0.68
0.84
1.29
1.89
2.44
2.73
2.73
2.53
2.33
2.27
2.38
2.60
2.74
2.68
2.34
1.76
1.06
0.35
-0.31
-0.93
-1.52
-2.12
-2.67
-3.08
-3.27
-3.22
-3.04
-2.94
-3.08
-3.52
-4.19
-4.85
-5.29
-5.37
-5.11
-4.59
-3.94
-3.23
-2.48
-1.66
-0.77
0.18
1.17
2.21
3.30
4.46
5.66
6.80
7.78
8.51
8.92
9.03
8.94
8.80
8.74
8.89
9.23
9.69
10.12
10.40
10.48
10.42
10.31
10.23
10.13
9.87
9.28
8.28
6.91
5.36
3.84
2.50
1.39
0.44
-0.46
-1.42
-2.47
-3.58
-4.67
-5.64
-6.37
-6.79
-6.85
-6.54
-5.84
-4.72
-3.16
-1.16
1.14
3.45
5.44
6.83
7.52
7.67
7.66
7.90
8.63
9.81
11.11
12.10
12.45
12.18
11.67
11.51
12.17
13.78
15.95
17.94
19.00
18.70
17.16
15.03
13.21
12.40
12.93
14.61
16.90
19.05
20.28
19.91
17.44
12.66
5.89
-1.95
-9.45
-15.17
-18.28
-18.98
-18.41
-18.15
-19.40
-22.39
-26.31
-29.84
-31.75
-31.52
-29.41
-26.22
-22.82
-19.84
-17.59
-16.16
-15.57
-15.78
-16.71
-18.08
-19.44
-20.31
-20.35
-19.55
-18.28
-17.15
-16.67
-17.01
-17.81
-18.35
-17.89
-16.00
-12.79
-8.77
-4.61
-0.76
2.69
5.91
9.16
12.51
15.83
18.83
21.25
23.05
24.42
25.63
26.92
28.30
29.54
30.30
30.32
29.55
28.19
26.55
24.90
23.31
21.72
20.03
18.32
16.88
16.05
16.13
17.12
18.80
20.82
22.94
25.01
27.02
28.87
30.38
31.31
31.50
31.09
30.53
30.43
31.33
33.39
36.12
38.48
39.03
36.54
30.37
20.83
9.10
-3.20
-14.56
-23.98
-31.21
-36.49
-40.31
-43.06
-44.90
-45.83
-45.85
-45.02
-43.59
-41.83
-40.03
-38.32
-36.70
-35.06
-33.23
-31.13
-28.85
-26.57
-24.51
-22.73
-21.11
-19.32
-17.08
-14.28
-11.09
-7.88
-5.06
-2.86
-1.24
0.01
1.14
2.30
3.43
4.36
4.90
5.00
4.75
4.30
3.82
3.35
2.86
2.28
1.57
0.80
0.09
-0.47
-0.88
-1.29
-1.92
-2.93
-4.36
-6.05
-7.74
-9.17
-10.22
-10.89
-11.34
-11.78
-12.32
-13.02
-13.79
-14.53
-15.07
-15.27
-15.01
-14.23
-12.89
-11.02
-8.68
-5.99
-3.09
-0.16
2.60
5.04
7.08
8.71
9.96
10.91
11.65
12.24
12.65
12.85
12.82
12.55
12.14
11.73
11.49
11.51
11.74
12.00
12.08
11.82
11.22
10.40
9.57
8.81
8.04
7.12
5.89
4.39
2.83
1.51
0.66
0.25
0.02
-0.44
-1.46
-3.12
-5.26
-7.50
-9.41
-10.71
-11.30
-11.24
-10.67
-9.71
-8.42
-6.81
-4.90
-2.75
-0.48
1.72
3.69
5.32
6.57
7.49
8.20
8.82
9.40
9.94
10.35
10.54
10.46
10.15
9.74
9.40
9.23
9.21
9.29
9.32
9.23
9.00
8.66
8.23
7.73
7.15
6.46
5.70
4.91
4.17
3.54
3.05
2.68
2.33
1.87
1.19
0.23
-1.00
-2.43
-3.97
-5.56
-7.14
-8.61
-9.79
-10.45
-10.36
-9.43
-7.71
-5.45
-3.03
-0.75
1.21
2.84
4.26
5.60
6.90
8.09
9.04
9.64
9.92
10.01
10.14
10.44
10.87
11.21
11.18
10.61
9.56
8.28
7.15
6.39
6.03
5.82
5.44
4.66
3.44
2.01
0.70
-0.22
-0.67
-0.82
-0.96
-1.42
-2.38
-3.79
-5.43
-7.05
-8.45
-9.63
-10.67
-11.64
-12.50
-13.03
-12.99
-12.19
-10.71
-8.82
-6.91
-5.26
-3.97
-2.90
-1.83
-0.61
0.70
1.86
2.62
2.86
2.72
2.49
2.52
2.97
3.77
4.62
5.23
5.43
5.24
4.89
4.59
4.47
4.51
4.55
4.45
4.12
3.62
3.04
2.49
1.98
1.47
0.85
0.07
-0.89
-1.96
-3.05
-4.07
-4.96
-5.72
-6.45
-7.22
-8.13
-9.13
-10.06
-10.66
-10.70
-10.08
-8.90
-7.42
-5.91
-4.52
-3.21
-1.84
-0.32
1.29
2.77
3.89
4.51
4.73
4.76
4.86
5.17
5.64
6.07
6.26
6.11
5.68
5.15
4.73
4.53
4.51
4.48
4.24
3.69
2.87
1.99
1.26
0.82
0.63
0.50
0.20
-0.33
-1.04
-1.72
-2.21
-2.46
-2.60
-2.83
-3.32
-4.11
-5.13
-6.17
-7.04
-7.57
-7.68
-7.33
-6.58
-5.49
-4.17
-2.71
-1.16
0.42
2.01
3.53
4.86
5.90
6.54
6.80
6.73
6.46
6.10
5.68
5.23
4.69
4.04
3.28
2.49
1.80
1.37
1.23
1.32
1.42
1.28
0.71
-0.28
-1.51
-2.72
-3.68
-4.33
-4.71
-4.96
-5.17
-5.41
-5.70
-6.10
-6.70
-7.55
-8.65
-9.88
-11.01
-11.80
-12.05
-11.63
-10.53
-8.85
-6.80
-4.61
-2.53
-0.69
0.86
2.15
3.25
4.20
5.01
5.68
6.27
6.87
7.56
8.33
9.06
9.61
9.81
9.65
9.28
8.93
8.78
8.94
9.29
9.63
9.71
9.35
8.55
7.43
6.16
4.83
3.47
2.07
0.63
-0.76
-1.92
-2.75
-3.23
-3.51
-3.86
-4.50
-5.54
-6.93
-8.46
-9.86
-10.86
-11.30
-11.12
-10.38
-9.21
-7.77
-6.17
-4.54
-2.95
-1.49
-0.29
0.55
1.00
1.09
0.98
0.83
0.80
0.98
1.35
1.83
2.29
2.62
2.74
2.65
2.40
2.12
1.95
1.95
2.09
2.31
2.48
2.58
2.58
2.50
2.34
2.03
1.54
0.87
0.10
-0.65
-1.32
-1.98
-2.79
-3.92
-5.41
-7.10
-8.70
-9.87
-10.40
-10.27
-9.64
-8.72
-7.69
-6.61
-5.46
-4.25
-3.03
-1.91
-1.03
-0.51
-0.36
-0.51
-0.81
-1.09
-1.20
-1.08
-0.73
-0.28
0.15
0.46
0.65
0.75
0.84
0.96
1.09
1.15
1.09
0.88
0.61
0.37
0.21
0.13
0.04
-0.20
-0.67
-1.40
-2.32
-3.35
-4.42
-5.43
-6.35
-7.10
-7.56
-7.66
-7.34
-6.61
-5.56
-4.28
-2.82
-1.15
0.78
3.03
5.53
8.08
10.38
12.15
13.25
13.71
13.79
13.86
14.26
15.27
16.94
19.13
21.59
23.98
26.06
27.75
29.19
30.73
32.75
35.52
38.95
42.62
45.78
47.68
47.78
46.01
42.79
38.90
35.07
31.73
28.84
25.93
22.42
17.99
12.80
7.50
2.84
-0.67
-3.00
-4.61
-6.08
-7.77
-9.63
-11.30
-12.41
-12.88
-12.97
-13.16
-13.83
-15.01
-16.39
-17.50
-17.98
-17.79
-17.19
-16.53
-16.09
-15.97
-16.14
-16.52
-17.10
-17.90
-18.88
-19.95
-20.86
-21.32
-21.12
-20.23
-18.84
-17.30
-16.03
-15.33
-15.24
-15.59
-16.02
-16.23
-16.06
-15.58
-14.98
-14.46
-14.06
-13.74
-13.38
-12.94
-12.50
-12.19
-12.11
-12.28
-12.64
-13.11
-13.67
-14.35
-15.26
-16.55
-18.30
-20.49
-22.94
-25.32
-27.27
-28.51
-28.95
-28.74
-28.15
-27.46
-26.77
-25.99
-24.85
-23.16
-20.87
-18.13
-15.26
-12.56
-10.21
-8.23
-6.50
-4.87
-3.25
-1.62
-0.01
1.54
3.02
4.42
5.68
6.67
7.24
7.34
7.01
6.43
5.78
5.20
4.67
4.06
3.25
2.22
1.14
0.26
-0.18
-0.10
0.48
1.42
2.61
4.06
5.80
7.85
10.11
12.36
14.39
16.15
17.77
19.56
21.77
24.45
27.40
30.27
32.76
34.78
36.51
38.28
40.42
43.11
46.40
50.30
54.74
59.35
63.25
64.96
62.78
55.43
42.75
25.95
7.34
-10.46
-25.32
-36.19
-43.05
-46.57
-47.59
-46.93
-45.24
-43.19
-41.44
-40.48
-40.45
-41.05
-41.71
-41.85
-41.19
-39.83
-38.16
-36.66
-35.57
-34.93
-34.55
-34.21
-33.74
-33.06
-32.15
-30.95
-29.28
-26.90
-23.48
-18.79
-12.87
-6.16
0.48
5.98
9.50
10.75
10.19
8.89
8.09
8.86
11.75
16.84
23.84
32.28
41.58
51.04
59.89
67.24
72.29
74.44
73.43
69.47
63.28
55.97
48.82
42.92
38.85
36.51
35.19
33.93
31.80
28.25
23.21
17.11
10.68
4.68
-0.24
-3.77
-5.90
-6.88
-7.08
-6.78
-6.13
-5.14
-3.84
-2.29
-0.65
0.93
2.35
3.59
4.68
5.64
6.36
6.70
6.52
5.79
4.57
3.03
1.39
-0.18
-1.59
-2.82
-3.96
-5.21
-6.82
-9.06
-12.11
-15.91
-20.17
-24.40
-28.11
-30.96
-32.92
-34.20
-35.09
-35.78
-36.25
-36.35
-35.93
-35.02
-33.88
-32.88
-32.28
-32.07
-32.00
-31.72
-31.02
-29.96
-28.87
-28.19
-28.18
-28.85
-29.89
-30.83
-31.22
-30.81
-29.63
-27.95
-26.17
-24.64
-23.53
-22.86
-22.54
-22.41
-22.33
-22.15
-21.70
-20.75
-19.04
-16.36
-12.67
-8.26
-3.71
0.10
2.37
2.63
1.03
-1.71
-4.56
-6.68
-7.70
-7.74
-7.15
-6.10
-4.47
-1.99
1.36
5.13
8.49
10.67
11.44
11.22
10.83
10.97
11.84
13.08
14.12
14.60
14.63
14.69
15.33
16.80
18.96
21.34
23.41
24.79
25.37
25.26
24.67
23.80
22.75
21.55
20.16
18.53
16.66
14.57
12.29
9.90
7.53
5.33
3.46
1.96
0.75
-0.39
-1.70
-3.30
-5.09
-6.83
-8.19
-8.99
-9.24
-9.08
-8.71
-8.24
-7.65
-6.90
-6.03
-5.23
-4.80
-5.06
-6.19
-8.17
-10.77
-13.61
-16.29
-18.47
-19.92
-20.57
-20.40
-19.53
-18.11
-16.31
-14.30
-12.23
-10.21
-8.35
-6.79
-5.61
-4.90
-4.63
-4.71
-5.01
-5.33
-5.55
-5.62
-5.63
-5.70
-5.96
-6.46
-7.11
-7.72
-8.03
-7.82
-6.94
-5.40
-3.33
-0.93
1.59
4.08
6.43
8.64
10.70
12.54
14.03
15.02
15.42
15.34
15.04
14.86
15.04
15.59
16.26
16.78
16.94
16.73
16.37
16.09
15.98
15.98
15.87
15.43
14.56
13.36
11.97
10.58
9.29
8.15
7.10
6.10
5.07
3.95
2.70
1.31
-0.18
-1.66
-3.02
-4.10
-4.80
-5.01
-4.64
-3.65
-2.08
-0.07
2.15
4.32
6.25
7.85
9.14
10.17
10.97
11.52
11.81
11.86
11.76
11.70
11.80
12.10
12.52
12.86
12.93
12.64
11.98
11.12
10.26
9.58
9.15
8.91
8.71
8.38
7.77
6.87
5.80
4.68
3.64
2.69
1.76
0.76
-0.37
-1.62
-2.93
-4.22
-5.41
-6.43
-7.17
-7.49
-7.28
-6.42
-4.93
-2.93
-0.64
1.65
3.68
5.25
6.23
6.68
6.74
6.62
6.55
6.66
6.91
7.21
7.40
7.45
7.36
7.22
7.08
6.93
6.68
6.23
5.54
4.68
3.84
3.22
2.89
2.76
2.57
2.06
1.09
-0.23
-1.62
-2.83
-3.75
-4.54
-5.45
-6.69
-8.19
-9.56
-10.33
-10.13
-8.94
-7.03
-4.89
-2.87
-1.17
0.35
1.89
3.63
5.51
7.29
8.63
9.30
9.29
8.83
8.33
8.12
8.36
8.92
9.53
9.87
9.78
9.32
8.71
8.23
8.01
7.97
7.89
7.50
6.63
5.34
3.89
2.61
1.71
1.19
0.82
0.33
-0.51
-1.68
-3.02
-4.29
-5.41
-6.40
-7.39
-8.45
-9.45
-10.08
-10.00
-9.02
-7.22
-4.98
-2.73
-0.85
0.56
1.64
2.61
3.67
4.82
5.89
6.68
7.06
7.05
6.86
6.73
6.85
7.24
7.76
8.18
8.32
8.13
7.71
7.25
6.91
6.73
6.57
6.26
5.62
4.66
3.54
2.53
1.80
1.35
0.99
0.40
-0.60
-2.05
-3.75
-5.37
-6.66
-7.51
-8.02
-8.34
-8.60
-8.79
-8.73
-8.17
-6.93
-5.00
-2.59
-0.09
2.13
3.78
4.88
5.60
6.17
6.74
7.24
7.46
7.24
6.59
5.82
5.36
5.55
6.45
7.79
9.12
10.04
10.40
10.36
10.24
10.30
10.63
11.09
11.50
11.73
11.82
12.05
12.71
13.91
15.52
17.16
18.37
18.85
18.64
18.12
17.84
18.29
19.64
21.75
24.23
26.67
28.88
31.01
33.40
36.35
39.82
43.32
45.95
46.70
44.79
40.05
32.95
24.47
15.79
7.96
1.61
-3.15
-6.71
-9.78
-13.20
-17.65
-23.43
-30.28
-37.47
-44.06
-49.34
-52.90
-54.79
-55.34
-55.00
-54.19
-53.35
-52.79
-52.77
-53.29
-54.07
-54.60
-54.34
-52.96
-50.58
-47.56
-44.23
-40.66
-36.76
-32.39
-27.52
-22.36
-17.19
-12.17
-7.30
-1.95
4.41
11.85
19.68
26.74
31.82
34.33
34.48
33.21
32.15
32.39
33.92
35.64
36.19
34.66
31.32
27.27
23.88
22.72
24.42
28.40
33.25
37.65
40.73
42.68
44.07
42.11
35.61
25.63
14.90
5.70
-0.04
-3.20
-4.37
-3.93
-2.38
-0.08
2.47
4.53
5.42
5.01
3.55
1.82
0.38
-0.64
-1.06
-0.99
-0.82
-0.94
-1.58
-2.78
-4.30
-6.06
-8.14
-10.33
-12.33
-13.77
-14.38
-14.07
-13.14
-12.04
-11.34
-11.41
-12.08
-12.65
-12.40
-10.89
-8.19
-4.87
-1.68
0.71
1.95
2.19
1.78
1.09
0.24
-0.89
-2.54
-4.90
-7.96
-11.35
-14.60
-17.26
-19.29
-21.18
-23.79
-28.00
-34.15
-41.62
-48.96
-54.40
-56.67
-55.61
-52.20
-47.93
-43.97
-40.37
-36.30
-30.77
-23.71
-16.38
-10.99
-9.40
-11.93
-16.89
-21.36
-22.80
-20.45
-15.75
-11.40
-9.81
-11.69
-15.66
-19.28
-20.33
-18.06
-13.42
-8.31
-4.51
-2.88
-3.05
-3.96
-4.61
-4.58
-4.21
-4.20
-5.09
-6.92
-9.07
-10.63
-10.90
-9.73
-7.60
-5.36
-3.75
-3.03
-2.81
-2.38
-1.07
1.35
4.52
7.72
10.20
11.53
11.85
11.67
11.58
11.94
12.66
13.37
13.63
13.22
12.35
11.49
11.06
11.22
11.75
12.17
12.05
11.22
9.98
8.84
8.23
8.27
8.63
8.72
8.03
6.39
4.21
2.18
0.93
0.72
1.21
1.73
1.58
0.45
-1.30
-2.94
-3.70
-3.23
-1.78
-0.03
1.31
1.89
2.01
2.34
3.56
5.93
9.11
12.33
14.82
16.15
16.53
16.55
16.81
17.60
18.78
19.99
20.91
21.54
22.29
23.65
25.87
28.74
31.65
33.93
35.22
35.68
36.07
37.27
39.86
43.86
48.54
52.72
55.11
54.78
51.59
46.08
39.25
32.07
25.04
18.15
11.03
3.43
-4.39
-11.70
-17.63
-21.65
-23.91
-25.19
-26.38
-28.02
-29.85
-31.09
-30.89
-28.93
-25.67
-22.16
-19.54
-18.49
-18.85
-19.82
-20.49
-20.25
-19.14
-17.69
-16.48
-15.86
-15.59
-15.24
-14.40
-13.08
-11.70
-10.89
-11.08
-12.29
-13.96
-15.38
-15.93
-15.48
-14.37
-13.35
-13.14
-14.19
-16.32
-18.94
-21.23
-22.55
-22.73
-22.12
-21.38
-21.16
-21.62
-22.47
-23.01
-22.54
-20.66
-17.47
-13.50
-9.50
-5.96
-3.04
-0.55
1.83
4.18
6.20
7.38
7.31
6.29
5.18
5.07
6.62
9.49
12.40
13.78
12.65
9.37
5.44
2.80
2.83
5.73
10.58
15.90
20.53
24.15
27.06
29.78
32.39
34.36
34.73
32.70
28.10
21.71
14.88
8.95
4.61
1.67
-0.71
-3.45
-6.99
-10.91
-14.33
-16.38
-16.70
-15.73
-14.40
-13.63
-13.92
-14.94
-15.87
-15.83
-14.41
-11.98
-9.40
-7.62
-7.16
-7.70
-8.49
-8.79
-8.41
-7.83
-7.86
-9.05
-11.30
-13.75
-15.33
-15.44
-14.28
-12.86
-12.36
-13.50
-16.09
-19.03
-21.00
-21.11
-19.46
-17.04
-15.23
-15.06
-16.66
-19.10
-21.05
-21.44
-20.06
-17.65
-15.44
-14.51
-15.22
-16.93
-18.52
-18.80
-17.12
-13.57
-8.84
-3.78
0.89
4.90
8.26
11.07
13.31
14.86
15.56
15.49
14.88
14.26
14.01
14.14
14.28
13.78
12.08
9.09
5.29
1.67
-0.78
-1.59
-0.95
0.27
1.03
0.53
-1.37
-4.10
-6.83
-8.85
-9.92
-10.37
-10.78
-11.64
-13.05
-14.56
-15.53
-15.46
-14.31
-12.54
-10.83
-9.64
-8.98
-8.26
-6.72
-3.95
-0.09
4.07
7.52
9.57
10.17
10.02
10.06
10.92
12.61
14.44
15.48
15.09
13.29
10.89
8.97
8.34
9.16
10.81
12.29
12.73
11.82
10.05
8.24
7.15
6.99
7.36
7.48
6.69
4.75
2.16
-0.27
-1.83
-2.32
-2.22
-2.36
-3.43
-5.54
-7.99
-9.69
-9.78
-8.04
-5.16
-2.28
-0.44
-0.04
-0.55
-1.06
-0.76
0.53
2.23
3.38
3.27
1.77
-0.35
-2.00
-2.34
-1.21
0.68
2.18
2.30
0.67
-2.09
-4.89
-6.71
-7.16
-6.75
-6.54
-7.50
-10.00
-13.36
-16.42
-18.14
-18.22
-17.29
-16.48
-16.73
-18.21
-20.09
-21.18
-20.64
-18.46
-15.53
-13.08
-11.97
-12.23
-12.96
-12.91
-11.18
-7.62
-2.91
1.88
5.91
8.97
11.77
15.31
20.29
26.50
32.66
37.00
38.11
35.65
30.65
24.87
19.94
16.61
14.61
13.15
11.57
9.77
8.44
8.32
9.75
12.43
15.52
18.16
19.89
20.80
21.51
22.64
24.46
26.70
28.66
29.62
29.26
27.80
26.13
25.24
25.70
27.37
29.28
30.06
28.53
24.27
18.03
11.28
5.58
1.89
0.12
-0.61
-1.36
-2.73
-4.29
-5.03
-3.96
-0.80
3.66
7.96
10.77
11.62
11.29
11.33
13.14
17.20
22.69
27.91
31.19
31.62
29.71
26.76
24.14
22.49
21.31
19.39
15.63
9.78
2.84
-3.50
-7.75
-9.45
-9.49
-9.59
-11.40
-15.70
-21.89
-28.66
-34.69
-39.45
-43.39
-47.49
-52.46
-58.16
-63.32
-66.27
-65.75
-61.52
-54.59
-46.63
-39.18
-33.04
-27.84
-22.66
-16.60
-9.43
-1.79
5.25
10.77
14.62
17.60
20.89
25.35
30.99
36.88
41.72
44.59
45.43
45.26
45.45
46.96
49.77
52.94
55.18
55.72
54.79
53.74
54.12
56.82
61.40
66.06
68.39
66.41
59.33
48.15
34.91
21.96
10.99
2.48
-4.19
-10.07
-15.93
-21.49
-25.74
-27.50
-26.29
-22.91
-19.23
-17.38
-18.82
-23.38
-29.63
-35.49
-39.39
-41.00
-41.29
-41.83
-43.77
-47.01
-50.40
-52.50
-52.52
-50.87
-48.71
-47.03
-45.91
-44.01
-39.69
-32.02
-21.73
-11.13
-3.11
0.32
-0.94
-4.96
-8.84
-10.18
-8.12
-3.61
1.27
4.49
4.90
2.95
0.02
-2.34
-3.31
-3.20
-3.04
-3.79
-5.57
-7.32
-7.50
-4.99
0.13
6.45
11.98
15.14
15.41
13.82
12.04
11.54
12.81
15.20
17.36
18.09
16.99
14.70
12.36
10.88
10.31
9.84
8.27
4.88
-0.18
-5.53
-9.52
-10.95
-9.77
-7.09
-4.69
-4.07
-5.80
-9.24
-13.11
-16.23
-18.14
-19.25
-20.41
-22.22
-24.60
-26.44
-26.51
-24.10
-19.60
-14.51
-10.74
-9.62
-11.23
-14.12
-16.24
-15.90
-12.63
-7.45
-2.32
0.80
0.81
-1.76
-5.35
-8.00
-8.36
-6.33
-2.94
0.27
2.20
2.93
3.52
5.28
8.92
13.97
18.96
22.28
22.85
21.10
18.27
15.82
14.50
13.95
13.05
10.73
6.82
2.48
-0.47
-0.58
2.33
6.82
10.53
11.41
8.69
3.61
-1.57
-4.68
-4.82
-2.79
-0.46
0.39
-0.87
-3.23
-4.84
-4.11
-0.71
4.15
8.39
10.20
8.87
5.49
2.00
0.25
1.00
3.53
6.18
7.37
6.56
4.72
3.64
4.83
8.57
13.61
17.84
19.46
17.76
13.92
9.87
7.45
7.27
8.41
9.00
7.36
3.03
-2.79
-7.92
-10.47
-9.81
-7.00
-4.12
-3.09
-4.74
-7.99
-10.97
-11.87
-10.18
-6.93
-4.08
-3.38
-5.25
-8.38
-10.56
-9.99
-6.30
-0.89
3.90
6.09
4.95
1.77
-1.39
-2.65
-1.46
1.15
3.31
3.47
1.30
-2.01
-4.59
-5.07
-3.32
-0.61
1.14
0.56
-2.63
-6.99
-10.61
-11.92
-10.61
-7.77
-5.24
-4.50
-5.91
-8.33
-10.00
-9.54
-6.77
-2.89
0.19
0.96
-1.10
-4.87
-8.59
-10.64
-10.44
-8.69
-6.90
-6.48
-7.98
-10.70
-13.19
-14.17
-13.25
-11.16
-9.30
-8.74
-9.58
-10.43
-9.48
-5.53
1.06
8.31
13.63
15.30
13.35
9.64
6.54
5.62
6.82
8.87
10.37
10.96
11.51
13.67
18.50
25.57
32.98
38.20
39.37
36.18
29.93
22.78
16.77
12.91
11.06
10.32
9.85
9.38
9.28
10.22
12.55
15.94
19.42
21.92
22.79
22.15
20.70
19.23
18.23
17.79
17.77
18.10
18.94
20.26
21.54
21.53
18.92
13.10
4.86
-3.65
-9.90
-12.37
-11.38
-9.22
-8.77
-12.04
-19.07
-28.03
-36.27
-41.74
-43.85
-43.57
-42.43
-41.53
-40.90
-39.76
-37.13
-32.75
-27.30
-22.32
-19.24
-18.66
-19.90
-21.46
-21.74
-20.02
-16.80
-13.53
-11.80
-12.38
-14.90
-18.10
-20.61
-21.64
-21.27
-20.14
-18.98
-18.13
-17.43
-16.56
-15.37
-13.95
-12.54
-11.22
-9.95
-8.57
-7.04
-5.57
-4.53
-4.05
-3.86
-3.12
-0.99
2.93
8.23
13.73
18.03
20.22
20.21
18.93
17.59
17.06
17.42
17.95
17.59
15.69
12.38
8.83
6.45
6.15
7.80
10.14
11.46
10.48
6.96
2.16
-2.07
-4.19
-3.79
-1.79
0.19
0.80
-0.20
-1.64
-1.82
0.49
5.18
10.76
15.07
16.52
14.77
11.18
7.73
6.08
6.62
8.37
9.64
9.07
6.35
2.52
-0.79
-2.27
-1.62
0.27
1.99
2.39
1.16
-0.85
-2.36
-2.34
-0.64
1.97
4.27
5.34
4.95
3.74
2.59
2.06
2.01
1.71
0.38
-2.32
-6.06
-9.83
-12.55
-13.55
-12.88
-11.25
-9.66
-8.92
-9.30
-10.31
-11.12
-10.98
-9.70
-7.82
-6.36
-6.25
-7.83
-10.47
-13.02
-14.32
-13.85
-11.90
-9.38
-7.25
-6.09
-5.83
-6.00
-5.99
-5.41
-4.22
-2.61
-0.89
0.71
2.10
3.33
4.39
5.15
5.29
4.48
2.57
-0.20
-3.23
-5.87
-7.77
-9.22
-10.97
-13.83
-18.10
-23.12
-27.63
-30.16
-29.82
-26.80
-22.14
-17.22
-13.12
-10.32
-8.99
-8.96
-10.06
-11.90
-13.61
-13.88
-11.35
-5.25
3.72
13.77
22.64
28.72
31.84
33.28
34.82
37.73
41.73
45.52
47.57
47.19
45.05
42.72
41.57
41.98
42.53
41.25
36.69
29.03
20.19
12.85
8.99
8.84
10.33
10.66
7.70
1.25
-6.76
-13.37
-16.24
-14.80
-10.99
-7.75
-7.58
-11.03
-16.36
-20.50
-20.76
-16.20
-8.56
-0.98
3.61
4.02
1.42
-1.47
-2.16
0.36
4.62
8.03
8.38
5.29
0.58
-2.83
-2.66
1.46
7.21
11.29
11.13
6.53
-0.14
-5.27
-6.05
-2.05
4.32
9.30
9.91
5.59
-1.53
-7.92
-10.57
-8.30
-2.23
5.35
12.39
17.91
21.99
25.01
26.97
27.39
25.50
21.11
14.94
8.46
3.27
0.38
-0.08
1.32
3.59
5.88
7.76
9.23
10.52
11.80
12.99
13.73
13.58
12.18
9.51
5.91
2.01
-1.46
-3.83
-4.67
-3.81
-1.48
1.70
4.76
6.69
6.71
4.69
1.14
-2.88
-6.24
-8.10
-8.16
-6.62
-3.99
-0.89
2.14
4.66
6.33
6.93
6.35
4.62
1.95
-1.34
-4.85
-8.14
-10.88
-12.83
-13.99
-14.51
-14.67
-14.76
-14.95
-15.26
-15.60
-15.78
-15.70
-15.34
-14.72
-13.93
-13.09
-12.27
-11.52
-10.85
-10.22
-9.59
-8.93
-8.24
-7.57
-6.92
-6.27
-5.55
-4.75
-3.91
-3.16
-2.62
-2.35
-2.25
-2.15
-1.87
-1.37
-0.76
-0.24
0.05
0.09
-0.04
-0.21
-0.33
-0.40
-0.49
-0.62
-0.72
-0.69
-0.43
0.07
0.74
1.44
2.07
2.64
3.32
4.32
5.78
7.68
9.80
11.79
13.31
14.14
14.25
13.76
12.83
11.63
10.22
8.60
6.77
4.77
2.79
1.07
-0.29
-1.32
-2.23
-3.35
-4.91
-6.93
-9.22
-11.50
-13.79
-16.27
-19.21
-22.72
-26.46
-29.74
-31.86
-32.57
-32.54
-32.89
-34.69
-38.32
-43.04
-47.42
-50.10
-50.52
-49.55
-48.73
-49.38
-51.74
-54.64
-56.14
-54.71
-50.05
-43.67
-37.75
-34.04
-32.69
-32.07
-29.60
-23.24
-12.52
0.83
14.11
24.99
32.77
38.68
45.04
53.78
65.42
78.34
90.07
98.52
103.11
105.00
106.09
107.74
109.82
110.44
107.38
99.34
86.95
72.54
59.04
48.41
40.94
35.08
28.94
21.41
12.91
5.07
-0.37
-2.65
-2.42
-1.52
-1.81
-4.24
-8.43
-12.96
-16.25
-17.45
-16.62
-14.89
-13.55
-13.45
-14.62
-16.37
-17.76
-18.12
-17.37
-16.07
-14.97
-14.69
-15.38
-16.81
-18.55
-20.25
-21.81
-23.35
-25.05
-27.02
-29.12
-31.04
-32.40
-32.89
-32.45
-31.28
-29.73
-28.16
-26.63
-24.86
-22.28
-18.27
-12.48
-5.00
3.69
12.95
22.14
30.81
38.60
45.11
49.80
52.02
51.26
47.36
40.69
32.15
22.93
14.20
6.88
1.34
-2.53
-5.28
-7.63
-10.08
-12.77
-15.39
-17.48
-18.78
-19.51
-20.34
-22.08
-25.14
-29.23
-33.35
-36.26
-37.09
-35.80
-33.15
-30.23
-27.86
-26.33
-25.45
-24.94
-24.70
-24.88
-25.63
-26.77
-27.75
-27.75
-26.12
-22.62
-17.50
-11.32
-4.67
1.97
8.30
14.16
19.46
24.18
28.38
32.17
35.58
38.56
40.91
42.40
42.85
42.18
40.42
37.66
34.08
29.92
25.57
21.54
18.35
16.37
15.64
15.82
16.34
16.69
16.62
16.25
15.88
15.74
15.69
15.20
13.53
9.94
4.12
-3.71
-12.83
-22.12
-30.38
-36.61
-40.35
-41.83
-41.89
-41.68
-42.18
-43.74
-45.87
-47.48
-47.28
-44.37
-38.63
-30.92
-22.82
-16.31
-13.10
-14.21
-19.49
-27.67
-36.55
-43.74
-47.44
-47.09
-43.58
-38.73
-34.35
-31.48
-29.80
-28.05
-24.74
-19.00
-11.06
-2.04
6.60
13.79
19.20
23.17
26.33
29.16
31.80
33.98
35.28
35.37
34.23
32.16
29.73
27.55
26.07
25.37
25.11
24.59
23.05
19.98
15.44
10.17
5.38
2.30
1.63
3.14
5.78
8.10
8.94
7.96
5.70
3.15
1.21
0.18
-0.18
-0.35
-0.59
-0.73
-0.34
0.98
3.22
5.89
8.19
9.39
9.15
7.63
5.42
3.18
1.43
0.29
-0.49
-1.39
-2.88
-5.21
-8.29
-11.77
-15.20
-18.25
-20.84
-23.07
-25.11
-27.00
-28.64
-29.87
-30.60
-30.93
-31.05
-31.09
-30.97
-30.33
-28.80
-26.21
-22.72
-18.70
-14.35
-9.43
-3.25
4.91
15.18
26.60
37.19
44.67
47.48
45.54
40.33
34.10
28.71
24.79
21.64
17.97
12.91
6.71
0.59
-4.04
-6.55
-7.55
-8.56
-11.03
-15.46
-21.07
-26.32
-29.80
-30.90
-30.12
-28.61
-27.44
-27.09
-27.31
-27.44
-26.88
-25.47
-23.56
-21.73
-20.45
-19.85
-19.62
-19.17
-17.96
-15.69
-12.41
-8.49
-4.48
-0.82
2.27
4.79
6.91
8.78
10.47
11.92
13.06
13.82
14.25
14.50
14.68
14.89
15.19
15.53
15.88
16.21
16.48
16.62
16.54
16.14
15.38
14.30
13.01
11.63
10.28
8.99
7.78
6.64
5.57
4.61
3.72
2.81
1.74
0.39
-1.28
-3.21
-5.20
-6.96
-8.23
-8.81
-8.59
-7.61
-5.99
-3.88
-1.48
1.04
3.50
5.71
7.51
8.76
9.43
9.61
9.49
9.32
9.31
9.58
10.08
10.68
11.18
11.44
11.45
11.27
11.00
10.73
10.49
10.24
9.87
9.31
8.49
7.42
6.17
4.85
3.59
2.48
1.55
0.76
0.01
-0.80
-1.76
-2.90
-4.17
-5.49
-6.68
-7.59
-8.04
-7.90
-7.14
-5.80
-4.04
-2.00
0.19
2.46
4.77
7.04
9.13
10.86
12.06
12.66
12.78
12.64
12.52
12.58
12.86
13.27
13.67
13.91
13.91
13.68
13.25
12.71
12.14
11.59
11.05
10.45
9.70
8.73
7.58
6.36
5.22
4.28
3.56
2.97
2.38
1.68
0.82
-0.26
-1.57
-3.15
-4.96
-6.89
-8.64
-9.87
-10.20
-9.46
-7.71
-5.27
-2.56
0.00
2.15
3.84
5.12
6.14
6.96
7.62
8.10
8.41
8.59
8.73
8.93
9.21
9.57
9.96
10.29
10.54
10.69
10.72
10.63
10.38
9.95
9.35
8.65
7.95
7.31
6.75
6.19
5.53
4.64
3.51
2.18
0.80
-0.51
-1.68
-2.74
-3.78
-4.91
-6.18
-7.53
-8.79
-9.76
-10.28
-10.23
-9.62
-8.49
-6.87
-4.86
-2.55
-0.12
2.24
4.31
5.96
7.18
8.05
8.71
9.27
9.78
10.20
10.49
10.58
10.48
10.27
10.08
10.00
10.08
10.27
10.44
10.48
10.33
10.03
9.71
9.49
9.41
9.43
9.37
9.10
8.51
7.64
6.59
5.47
4.31
3.07
1.72
0.22
-1.38
-3.03
-4.62
-6.05
-7.24
-8.05
-8.36
-8.04
-7.05
-5.48
-3.58
-1.67
-0.03
1.19
2.04
2.69
3.30
3.96
4.58
5.00
5.11
4.91
4.60
4.45
4.71
5.47
6.60
7.82
8.78
9.17
8.82
7.70
5.96
3.81
1.52
-0.66
-2.54
-4.01
-5.07
-5.78
-6.23
-6.54
-6.81
-7.09
-7.43
-7.85
-8.35
-8.95
-9.62
-10.30
-10.85
-11.08
-10.78
-9.76
-7.97
-5.52
-2.66
0.29
3.00
5.26
6.96
8.17
9.00
9.60
10.07
10.49
10.89
11.29
11.73
12.23
12.77
13.27
13.59
13.56
13.07
12.11
10.73
9.11
7.39
5.70
4.02
2.30
0.43
-1.60
-3.76
-5.98
-8.15
-10.16
-11.96
-13.50
-14.78
-15.83
-16.76
-17.71
-18.81
-20.10
-21.49
-22.75
-23.56
-23.66
-22.91
-21.37
-19.24
-16.77
-14.16
-11.54
-8.95
-6.42
-4.03
-1.92
-0.26
0.84
1.43
1.68
1.88
2.30
3.06
4.14
5.36
6.46
7.26
7.65
7.68
7.48
7.23
7.02
6.92
6.87
6.81
6.62
6.22
5.56
4.63
3.50
2.23
0.95
-0.24
-1.29
-2.20
-3.01
-3.83
-4.74
-5.85
-7.20
-8.73
-10.27
-11.56
-12.32
-12.36
-11.64
-10.27
-8.50
-6.56
-4.61
-2.75
-1.04
0.46
1.64
2.40
2.72
2.68
2.48
2.30
2.26
2.38
2.60
2.85
3.10
3.34
3.61
3.93
4.29
4.64
4.90
4.95
4.70
4.04
2.99
1.65
0.19
-1.20
-2.38
-3.33
-4.10
-4.79
-5.47
-6.14
-6.77
-7.25
-7.54
-7.61
-7.46
-7.06
-6.38
-5.36
-3.98
-2.31
-0.48
1.35
3.02
4.43
5.55
6.40
7.04
7.45
7.63
7.57
7.27
6.84
6.39
6.04
5.81
5.66
5.46
5.12
4.62
4.04
3.51
3.12
2.86
2.60
2.17
1.45
0.47
-0.62
-1.62
-2.41
-2.99
-3.49
-4.12
-4.98
-6.11
-7.43
-8.82
-10.10
-11.10
-11.66
-11.65
-10.98
-9.70
-7.93
-5.91
-3.84
-1.88
-0.10
1.47
2.82
3.91
4.67
5.08
5.18
5.08
4.95
4.92
5.05
5.35
5.81
6.42
7.12
7.86
8.57
9.10
9.38
9.37
9.11
8.68
8.13
7.46
6.65
5.72
4.76
3.91
3.26
2.79
2.34
1.65
0.59
-0.81
-2.32
-3.63
-4.60
-5.21
-5.54
-5.65
-5.51
-5.12
-4.67
-4.62
-5.47
-7.42
-10.22
-13.13
-15.38
-16.63
-17.17
-17.83
-19.43
-22.33
-26.19
-30.16
-33.24
-34.76
-34.56
-32.90
-30.31
-27.37
-24.51
-22.04
-20.10
-18.79
-18.21
-18.43
-19.33
-20.44
-20.96
-19.95
-16.79
-11.65
-5.65
-0.48
2.43
2.78
1.79
1.67
4.56
11.29
20.77
30.44
37.51
40.20
38.45
33.63
27.59
21.87
17.35
14.52
14.00
16.59
22.82
32.33
43.58
54.26
62.19
66.24
66.62
64.46
61.08
57.31
53.37
49.21
44.93
40.95
37.84
35.88
34.81
33.90
32.31
29.59
25.95
22.15
19.16
17.65
17.69
18.69
19.69
19.85
18.83
17.01
15.23
14.30
14.55
15.56
16.38
16.01
13.87
10.04
5.05
-0.46
-6.06
-11.56
-16.84
-21.65
-25.59
-28.40
-30.19
-31.61
-33.56
-36.70
-41.13
-46.24
-51.03
-54.59
-56.49
-56.87
-56.23
-54.99
-53.27
-50.77
-47.08
-41.95
-35.62
-28.79
-22.37
-17.08
-13.17
-10.43
-8.40
-6.78
-5.56
-5.03
-5.43
-6.70
-8.33
-9.49
-9.42
-7.82
-4.92
-1.41
1.90
4.50
6.32
7.77
9.41
11.63
14.43
17.32
19.59
20.64
20.19
18.38
15.64
12.48
9.31
6.30
3.41
0.35
-3.21
-7.42
-12.05
-16.42
-19.62
-20.96
-20.41
-18.75
-17.23
-16.92
-18.09
-20.07
-21.64
-21.72
-19.94
-16.69
-12.71
-8.57
-4.35
0.23
5.33
10.66
15.32
18.21
18.55
16.37
12.56
8.50
5.41
3.78
3.22
2.73
1.29
-1.64
-5.87
-10.63
-15.05
-18.56
-21.07
-22.79
-23.88
-24.23
-23.46
-21.17
-17.39
-12.70
-8.17
-4.89
-3.54
-4.04
-5.64
-7.28
-8.07
-7.72
-6.65
-5.77
-6.03
-7.98
-11.54
-16.06
-20.61
-24.29
-26.52
-27.07
-25.92
-23.23
-19.26
-14.53
-9.81
-6.09
-4.26
-4.79
-7.53
-11.84
-16.86
-21.83
-26.28
-29.91
-32.41
-33.40
-32.51
-29.57
-24.81
-18.78
-12.19
-5.62
0.63
6.46
11.82
16.53
20.28
22.67
23.55
23.13
22.05
21.18
21.37
23.12
26.40
30.69
35.04
38.43
39.90
38.89
35.32
29.71
23.01
16.45
11.05
7.33
5.15
3.81
2.47
0.49
-2.35
-5.89
-9.82
-13.85
-17.80
-21.49
-24.67
-27.06
-28.38
-28.54
-27.64
-25.94
-23.78
-21.42
-19.03
-16.65
-14.21
-11.56
-8.55
-5.07
-1.18
2.88
6.70
9.75
11.59
11.98
11.08
9.45
7.96
7.45
8.45
10.88
14.12
17.21
19.36
20.23
20.10
19.59
19.34
19.66
20.48
21.37
21.74
21.07
19.00
15.53
10.94
5.78
0.73
-3.51
-6.46
-7.88
-7.86
-6.81
-5.37
-4.34
-4.41
-5.93
-8.66
-11.82
-14.34
-15.35
-14.47
-11.89
-8.04
-3.33
1.98
7.59
12.92
16.97
18.66
17.36
13.35
7.97
3.06
0.24
0.16
2.30
5.35
7.84
8.84
8.27
6.77
5.24
4.34
4.18
4.40
4.46
3.98
2.98
1.81
0.92
0.62
0.89
1.40
1.75
1.67
1.12
0.31
-0.53
-1.25
-1.93
-2.72
-3.79
-5.12
-6.47
-7.49
-7.85
-7.37
-6.15
-4.44
-2.61
-0.96
0.28
1.05
1.38
1.39
1.22
1.00
0.88
0.92
1.16
1.58
2.01
2.20
1.89
0.92
-0.66
-2.53
-4.27
-5.46
-5.94
-5.81
-5.40
-5.10
-5.15
-5.62
-6.39
-7.30
-8.28
-9.34
-10.55
-11.97
-13.56
-15.09
-16.28
-16.87
-16.73
-15.93
-14.69
-13.31
-12.01
-10.92
-10.06
-9.35
-8.71
-8.10
-7.53
-7.03
-6.65
-6.41
-6.30
-6.26
-6.14
-5.74
-4.88
-3.45
-1.52
0.70
2.90
4.78
6.16
6.99
7.31
7.26
6.94
6.46
5.89
5.29
4.71
4.22
3.95
4.00
4.43
5.16
5.96
6.52
6.58
6.03
4.94
3.55
2.04
0.46
-1.26
-3.19
-5.28
-7.25
-8.69
-9.24
-8.68
-7.11
-4.81
-2.16
0.48
2.87
4.86
6.33
7.21
7.47
7.13
6.35
5.35
4.37
3.63
3.19
3.02
2.95
2.85
2.60
2.20
1.72
1.25
0.89
0.69
0.65
0.71
0.78
0.77
0.61
0.30
-0.08
-0.45
-0.71
-0.90
-1.11
-1.50
-2.15
-3.08
-4.14
-5.13
-5.87
-6.23
-6.17
-5.68
-4.80
-3.54
-1.96
-0.13
1.79
3.61
5.12
6.18
6.77
6.98
7.04
7.14
7.43
7.95
8.64
9.41
10.14
10.73
11.06
10.98
10.37
9.22
7.64
5.90
4.31
3.09
2.31
1.87
1.58
1.25
0.77
0.09
-0.78
-1.87
-3.25
-4.94
-6.95
-9.15
-11.36
-13.36
-14.95
-15.98
-16.36
-16.02
-14.96
-13.25
-11.07
-8.64
-6.20
-3.91
-1.77
0.33
2.46
4.62
6.62
8.23
9.26
9.75
9.92
10.07
10.42
11.02
11.72
12.34
12.78
13.06
13.28
13.50
13.70
13.79
13.69
13.36
12.88
12.35
11.87
11.50
11.22
11.05
10.97
10.95
10.94
10.84
10.57
10.06
9.31
8.30
7.07
5.67
4.25
3.06
2.40
2.51
3.43
4.98
6.77
8.44
9.76
10.72
11.47
12.12
12.67
12.98
12.90
12.39
11.63
10.96
10.71
11.06
11.95
13.11
14.13
14.67
14.46
13.45
11.81
9.88
8.09
6.75
5.93
5.38
4.68
3.49
1.79
-0.12
-1.82
-3.05
-3.90
-4.77
-5.95
-7.37
-8.59
-9.22
-9.18
-8.80
-8.47
-8.21
-7.58
-6.05
-3.50
-0.67
1.11
0.60
-2.59
-7.69
-13.05
-17.02
-18.64
-18.05
-16.08
-13.76
-11.67
-9.89
-8.17
-6.36
-4.67
-3.74
-4.41
-7.27
-12.25
-18.55
-24.89
-29.94
-32.80
-33.20
-31.50
-28.43
-24.84
-21.49
-18.84
-17.00
-15.71
-14.63
-13.50
-12.37
-11.61
-11.64
-12.57
-14.05
-15.32
-15.59
-14.43
-11.97
-8.81
-5.58
-2.61
0.22
3.28
6.84
10.76
14.46
17.23
18.59
18.66
18.05
17.56
17.69
18.37
18.98
18.78
17.38
14.96
12.26
10.13
9.10
9.15
9.78
10.41
10.70
10.74
10.93
11.66
13.08
15.03
17.13
19.08
20.70
22.01
23.00
23.56
23.33
21.91
19.00
14.68
9.42
4.08
-0.37
-3.16
-3.96
-3.04
-1.12
0.92
2.36
2.95
2.83
2.37
1.85
1.35
0.73
-0.12
-1.13
-2.01
-2.39
-2.06
-1.15
-0.09
0.60
0.48
-0.53
-2.25
-4.27
-6.21
-7.84
-9.11
-10.16
-11.28
-12.80
-15.03
-18.11
-21.98
-26.27
-30.41
-33.71
-35.58
-35.67
-33.97
-30.88
-27.07
-23.31
-20.21
-18.00
-16.45
-14.84
-12.33
-8.33
-2.92
3.02
8.22
11.64
13.08
13.29
13.51
14.59
16.38
17.65
16.85
12.96
6.20
-2.15
-10.39
-17.25
-22.27
-25.62
-27.63
-28.41
-27.84
-25.92
-23.07
-20.10
-17.92
-17.11
-17.66
-19.10
-20.75
-21.99
-22.54
-22.37
-21.64
-20.61
-19.56
-18.72
-18.21
-17.99
-17.89
-17.60
-16.84
-15.44
-13.37
-10.73
-7.71
-4.48
-1.19
2.01
5.01
7.70
9.99
11.83
13.21
14.16
14.75
15.09
15.29
15.46
15.65
15.90
16.20
16.52
16.81
17.05
17.21
17.23
17.04
16.54
15.70
14.56
13.19
11.75
10.39
9.22
8.26
7.44
6.64
5.73
4.62
3.31
1.84
0.31
-1.15
-2.40
-3.30
-3.70
-3.51
-2.70
-1.30
0.56
2.71
4.97
7.16
9.16
10.85
12.13
12.93
13.22
13.06
12.61
12.09
11.71
11.59
11.74
12.06
12.39
12.61
12.70
12.69
12.66
12.62
12.46
12.03
11.20
9.95
8.40
6.79
5.39
4.35
3.70
3.28
2.85
2.20
1.21
-0.07
-1.47
-2.74
-3.71
-4.27
-4.43
-4.18
-3.50
-2.34
-0.69
1.36
3.61
5.84
7.88
9.66
11.12
12.18
12.68
12.50
11.64
10.38
9.11
8.28
8.07
8.38
8.89
9.29
9.43
9.35
9.21
9.06
8.81
8.24
7.19
5.69
3.97
2.34
1.00
0.02
-0.75
-1.50
-2.35
-3.34
-4.40
-5.49
-6.58
-7.70
-8.77
-9.66
-10.15
-10.04
-9.23
-7.77
-5.84
-3.69
-1.53
0.47
2.27
3.84
5.22
6.38
7.30
7.97
8.41
8.66
8.81
8.93
9.08
9.27
9.50
9.74
10.01
10.25
10.41
10.37
10.01
9.30
8.32
7.20
6.10
5.13
4.29
3.54
2.80
2.04
1.24
0.42
-0.42
-1.29
-2.20
-3.16
-4.17
-5.20
-6.16
-6.96
-7.48
-7.62
-7.30
-6.44
-5.04
-3.15
-0.87
1.60
3.98
5.96
7.31
7.91
7.83
7.28
6.51
5.76
5.15
4.72
4.50
4.49
4.71
5.14
5.73
6.38
6.95
7.34
7.45
7.25
6.77
6.06
5.24
4.38
3.58
2.83
2.08
1.25
0.30
-0.75
-1.82
-2.82
-3.73
-4.62
-5.60
-6.71
-7.88
-8.91
-9.57
-9.72
-9.36
-8.58
-7.49
-6.21
-4.77
-3.24
-1.74
-0.45
0.49
1.03
1.27
1.39
1.56
1.83
2.17
2.45
2.62
2.66
2.64
2.63
2.69
2.80
2.89
2.88
2.69
2.28
1.67
0.91
0.10
-0.68
-1.35
-1.87
-2.26
-2.58
-2.87
-3.18
-3.52
-3.89
-4.35
-4.95
-5.70
-6.56
-7.36
-7.86
-7.82
-7.11
-5.74
-3.91
-1.90
0.03
1.71
3.04
4.00
4.58
4.74
4.52
3.97
3.27
2.62
2.19
2.05
2.15
2.38
2.66
2.91
3.11
3.27
3.39
3.45
3.39
3.15
2.68
1.98
1.09
0.13
-0.77
-1.51
-2.03
-2.39
-2.71
-3.14
-3.81
-4.75
-5.93
-7.21
-8.41
-9.34
-9.80
-9.72
-9.06
-7.92
-6.45
-4.81
-3.15
-1.58
-0.17
1.04
2.01
2.76
3.30
3.66
3.86
3.91
3.83
3.67
3.44
3.18
2.96
2.83
2.81
2.93
3.13
3.31
3.34
3.12
2.59
1.78
0.81
-0.20
-1.11
-1.83
-2.36
-2.72
-3.00
-3.28
-3.64
-4.14
-4.81
-5.62
-6.53
-7.44
-8.17
-8.53
-8.38
-7.65
-6.41
-4.83
-3.10
-1.38
0.24
1.70
2.95
3.90
4.45
4.53
4.23
3.76
3.35
3.17
3.27
3.57
3.95
4.31
4.62
4.85
4.97
4.94
4.67
4.15
3.42
2.62
1.87
1.26
0.80
0.43
0.05
-0.39
-0.92
-1.55
-2.29
-3.11
-4.00
-4.89
-5.70
-6.39
-6.95
-7.42
-7.82
-8.11
-8.14
-7.74
-6.77
-5.24
-3.32
-1.32
0.47
1.87
2.82
3.40
3.68
3.72
3.55
3.21
2.80
2.47
2.38
2.58
3.02
3.53
3.96
4.21
4.24
4.07
3.74
3.28
2.72
2.09
1.46
0.87
0.30
-0.28
-0.93
-1.67
-2.44
-3.16
-3.78
-4.31
-4.83
-5.43
-6.17
-6.97
-7.70
-8.17
-8.22
-7.76
-6.84
-5.57
-4.15
-2.73
-1.37
-0.10
1.12
2.25
3.17
3.74
3.83
3.46
2.80
2.14
1.75
1.78
2.15
2.66
3.05
3.18
3.04
2.76
2.50
2.34
2.23
2.04
1.65
1.02
0.23
-0.58
-1.31
-1.94
-2.54
-3.20
-3.93
-4.69
-5.43
-6.13
-6.82
-7.51
-8.17
-8.65
-8.77
-8.36
-7.43
-6.09
-4.53
-2.96
-1.47
-0.09
1.19
2.36
3.37
4.12
4.52
4.55
4.26
3.79
3.33
3.07
3.10
3.39
3.77
4.06
4.10
3.83
3.31
2.67
2.05
1.54
1.12
0.70
0.18
-0.52
-1.39
-2.32
-3.17
-3.82
-4.25
-4.53
-4.80
-5.22
-5.87
-6.75
-7.76
-8.74
-9.49
-9.84
-9.66
-8.90
-7.61
-5.95
-4.12
-2.31
-0.64
0.83
2.11
3.18
4.01
4.56
4.78
4.70
4.41
4.01
3.64
3.42
3.44
3.70
4.14
4.64
5.04
5.25
5.25
5.07
4.81
4.52
4.17
3.70
3.07
2.32
1.55
0.92
0.50
0.26
0.08
-0.26
-0.87
-1.78
-2.88
-4.00
-5.01
-5.83
-6.46
-6.89
-7.07
-6.91
-6.33
-5.33
-4.03
-2.63
-1.30
-0.16
0.81
1.64
2.36
2.94
3.33
3.51
3.51
3.46
3.44
3.51
3.60
3.63
3.52
3.28
2.99
2.72
2.51
2.36
2.21
2.04
1.84
1.61
1.29
0.82
0.14
-0.76
-1.74
-2.65
-3.35
-3.86
-4.32
-4.89
-5.67
-6.63
-7.60
-8.39
-8.84
-8.89
-8.56
-7.90
-6.96
-5.82
-4.60
-3.38
-2.26
-1.29
-0.43
0.38
1.17
1.91
2.53
2.94
3.14
3.21
3.27
3.42
3.68
3.97
4.14
4.12
3.92
3.66
3.45
3.37
3.36
3.28
3.01
2.50
1.80
1.02
0.27
-0.38
-0.94
-1.40
-1.80
-2.16
-2.60
-3.22
-4.15
-5.39
-6.80
-8.12
-9.04
-9.38
-9.12
-8.43
-7.50
-6.46
-5.33
-4.04
-2.56
-0.94
0.63
1.95
2.87
3.35
3.52
3.52
3.49
3.49
3.51
3.53
3.62
3.83
4.20
4.67
5.08
5.25
5.06
4.55
3.87
3.17
2.52
1.85
1.04
0.02
-1.17
-2.37
-3.45
-4.32
-5.04
-5.75
-6.56
-7.55
-8.66
-9.83
-10.92
-11.82
-12.39
-12.54
-12.21
-11.43
-10.28
-8.84
-7.18
-5.32
-3.24
-0.98
1.32
3.43
5.13
6.29
6.94
7.28
7.50
7.74
8.01
8.25
8.41
8.49
8.55
8.66
8.83
8.99
9.04
8.89
8.52
8.00
7.40
6.78
6.18
5.59
4.99
4.39
3.77
3.15
2.52
1.84
1.08
0.24
-0.69
-1.63
-2.49
-3.22
-3.80
-4.28
-4.74
-5.24
-5.72
-6.02
-5.94
-5.32
-4.12
-2.44
-0.54
1.34
2.98
4.26
5.12
5.57
5.65
5.47
5.18
4.95
4.91
5.11
5.50
5.99
6.45
6.79
6.90
6.74
6.28
5.56
4.73
3.98
3.43
3.08
2.83
2.47
1.88
1.06
0.09
-0.88
-1.75
-2.46
-3.01
-3.40
-3.68
-3.93
-4.28
-4.87
-5.70
-6.66
-7.52
-8.03
-8.01
-7.46
-6.50
-5.30
-4.04
-2.81
-1.69
-0.72
0.04
0.56
0.83
0.91
0.86
0.79
0.75
0.76
0.81
0.85
0.88
0.91
0.95
1.04
1.16
1.26
1.29
1.24
1.10
0.90
0.67
0.41
0.09
-0.30
-0.76
-1.26
-1.77
-2.24
-2.68
-3.09
-3.49
-3.90
-4.32
-4.74
-5.10
-5.30
-5.25
-4.85
-4.05
-2.85
-1.34
0.35
2.03
3.55
4.80
5.75
6.44
6.94
7.33
7.64
7.85
7.93
7.84
7.58
7.20
6.76
6.32
5.92
5.57
5.28
5.08
4.99
5.00
5.01
4.86
4.35
3.39
2.06
0.62
-0.63
-1.43
-1.74
-1.72
-1.68
-1.91
-2.55
-3.60
-4.92
-6.30
-7.53
-8.48
-9.03
-9.11
-8.68
-7.78
-6.46
-4.85
-3.11
-1.40
0.12
1.36
2.29
2.96
3.44
3.75
3.89
3.88
3.73
3.55
3.44
3.50
3.74
4.04
4.28
4.38
4.31
4.13
3.92
3.69
3.42
3.06
2.57
1.95
1.23
0.47
-0.31
-1.08
-1.79
-2.42
-2.94
-3.39
-3.85
-4.41
-5.15
-6.02
-6.89
-7.51
-7.69
-7.30
-6.40
-5.16
-3.84
-2.64
-1.63
-0.76
0.05
0.89
1.73
2.46
2.93
3.05
2.87
2.53
2.22
2.10
2.21
2.48
2.75
2.86
2.77
2.51
2.20
1.93
1.72
1.47
1.03
0.31
-0.69
-1.82
-2.88
-3.68
-4.14
-4.29
-4.26
-4.21
-4.28
-4.59
-5.17
-5.98
-6.87
-7.63
-8.03
-7.90
-7.16
-5.91
-4.33
-2.63
-0.99
0.49
1.73
2.69
3.33
3.62
3.64
3.48
3.27
3.12
3.04
3.04
3.05
3.06
3.06
3.06
3.02
2.87
2.52
1.93
1.16
0.32
-0.46
-1.08
-1.55
-1.95
-2.36
-2.79
-3.18
-3.41
-3.44
-3.32
-3.25
-3.45
-4.04
-4.99
-6.04
-6.87
-7.20
-6.91
-6.05
-4.86
-3.55
-2.28
-1.08
0.10
1.27
2.36
3.21
3.64
3.63
3.29
2.89
2.66
2.75
3.10
3.59
4.09
4.57
5.04
5.53
5.98
6.24
6.18
5.74
5.00
4.09
3.16
2.28
1.47
0.73
0.07
-0.47
-0.92
-1.32
-1.80
-2.44
-3.27
-4.26
-5.29
-6.24
-7.01
-7.51
-7.65
-7.36
-6.57
-5.31
-3.72
-2.00
-0.39
0.94
1.92
2.62
3.12
3.52
3.85
4.11
4.27
4.32
4.28
4.23
4.22
4.29
4.42
4.57
4.68
4.71
4.68
4.59
4.43
4.15
3.70
3.00
2.07
0.99
-0.09
-1.03
-1.74
-2.22
-2.55
-2.85
-3.23
-3.78
-4.49
-5.32
-6.15
-6.84
-7.27
-7.36
-7.10
-6.52
-5.67
-4.59
-3.31
-1.89
-0.41
0.98
2.15
3.03
3.57
3.82
3.83
3.69
3.45
3.19
3.00
2.93
3.01
3.14
3.21
3.12
2.83
2.41
1.94
1.52
1.14
0.77
0.36
-0.10
-0.58
-1.06
-1.52
-1.99
-2.47
-2.95
-3.36
-3.67
-3.87
-4.06
-4.38
-4.91
-5.65
-6.46
-7.12
-7.42
-7.19
-6.40
-5.13
-3.54
-1.79
-0.08
1.45
2.71
3.61
4.13
4.29
4.18
3.95
3.78
3.81
4.10
4.56
4.99
5.20
5.08
4.66
4.09
3.54
3.13
2.87
2.73
2.59
2.37
2.04
1.57
1.01
0.40
-0.23
-0.83
-1.38
-1.90
-2.44
-3.06
-3.79
-4.61
-5.45
-6.20
-6.78
-7.10
-7.17
-6.98
-6.53
-5.83
-4.84
-3.55
-2.03
-0.41
1.10
2.31
3.07
3.37
3.31
3.06
2.78
2.60
2.56
2.63
2.79
3.02
3.29
3.51
3.62
3.54
3.26
2.85
2.41
2.05
1.80
1.59
1.35
1.02
0.61
0.20
-0.14
-0.41
-0.68
-1.07
-1.69
-2.53
-3.57
-4.69
-5.78
-6.72
-7.39
-7.66
-7.43
-6.70
-5.52
-4.05
-2.48
-0.98
0.33
1.42
2.27
2.89
3.27
3.44
3.45
3.42
3.45
3.65
4.03
4.47
4.83
4.93
4.74
4.36
4.00
3.83
3.92
4.15
4.28
4.08
3.45
2.48
1.38
0.41
-0.31
-0.77
-1.07
-1.33
-1.60
-1.92
-2.29
-2.77
-3.39
-4.18
-5.06
-5.87
-6.47
-6.76
-6.77
-6.58
-6.27
-5.85
-5.25
-4.38
-3.21
-1.81
-0.32
1.07
2.23
3.03
3.46
3.51
3.25
2.81
2.34
1.98
1.78
1.76
1.87
2.05
2.27
2.48
2.64
2.64
2.42
1.95
1.28
0.57
-0.02
-0.40
-0.58
-0.68
-0.86
-1.20
-1.74
-2.42
-3.19
-3.99
-4.80
-5.57
-6.22
-6.64
-6.69
-6.32
-5.55
-4.49
-3.26
-1.95
-0.66
0.58
1.71
2.65
3.34
3.76
3.93
3.94
3.89
3.83
3.79
3.75
3.68
3.59
3.51
3.46
3.46
3.51
3.54
3.52
3.44
3.29
3.08
2.80
2.41
1.87
1.17
0.38
-0.38
-0.99
-1.38
-1.66
-1.99
-2.58
-3.56
-4.86
-6.31
-7.64
-8.62
-9.12
-9.11
-8.64
-7.74
-6.47
-4.88
-3.03
-1.08
0.81
2.44
3.67
4.39
4.63
4.50
4.18
3.88
3.77
3.92
4.28
4.73
5.09
5.24
5.13
4.75
4.14
3.38
2.54
1.73
1.05
0.56
0.22
-0.06
-0.42
-0.94
-1.61
-2.32
-2.95
-3.46
-3.86
-4.27
-4.81
-5.53
-6.38
-7.27
-8.05
-8.62
-8.92
-8.91
-8.59
-7.93
-6.88
-5.44
-3.69
-1.80
0.01
1.48
2.50
3.05
3.29
3.39
3.50
3.68
3.90
4.07
4.14
4.07
3.87
3.56
3.15
2.69
2.21
1.76
1.40
1.13
0.92
0.70
0.40
-0.02
-0.58
-1.23
-1.91
-2.55
-3.10
-3.56
-3.93
-4.27
-4.67
-5.21
-5.93
-6.80
-7.72
-8.55
-9.09
-9.16
-8.65
-7.51
-5.84
-3.86
-1.84
-0.05
1.34
2.31
2.91
3.29
3.55
3.75
3.90
4.02
4.15
4.35
4.67
5.12
5.62
6.06
6.33
6.36
6.13
5.71
5.17
4.63
4.15
3.76
3.43
3.11
2.74
2.33
1.90
1.52
1.27
1.12
1.01
0.77
0.25
-0.62
-1.77
-2.98
-3.97
-4.48
-4.40
-3.81
-2.86
-1.77
-0.66
0.41
1.46
2.48
3.38
4.01
4.25
4.10
3.66
3.17
2.84
2.79
2.98
3.27
3.49
3.54
3.43
3.22
3.01
2.86
2.76
2.70
2.63
2.49
2.22
1.73
1.03
0.17
-0.71
-1.45
-1.95
-2.25
-2.50
-2.88
-3.53
-4.43
-5.49
-6.53
-7.42
-8.03
-8.30
-8.20
-7.71
-6.88
-5.78
-4.51
-3.19
-1.87
-0.56
0.71
1.91
2.92
3.66
4.04
4.08
3.87
3.53
3.20
2.97
2.85
2.84
2.90
3.00
3.10
3.19
3.24
3.23
3.11
2.86
2.48
1.97
1.37
0.72
0.05
-0.64
-1.35
-2.06
-2.69
-3.20
-3.54
-3.79
-4.04
-4.40
-4.87
-5.34
-5.60
-5.48
-4.86
-3.76
-2.29
-0.63
1.09
2.78
4.42
5.98
7.42
8.65
9.58
10.12
10.30
10.21
10.01
9.81
9.67
9.56
9.45
9.33
9.25
9.28
9.45
9.67
9.81
9.69
9.22
8.39
7.25
5.88
4.35
2.77
1.25
-0.03
-0.91
-1.31
-1.30
-1.08
-0.88
-0.93
-1.27
-1.86
-2.56
-3.21
-3.69
-3.94
-3.92
-3.61
-3.01
-2.18
-1.24
-0.36
0.32
0.66
0.66
0.39
-0.03
-0.47
-0.85
-1.13
-1.32
-1.47
-1.62
-1.81
-1.97
-2.03
-1.88
-1.51
-0.98
-0.47
-0.16
-0.20
-0.63
-1.40
-2.41
-3.49
-4.51
-5.35
-5.93
-6.28
-6.48
-6.70
-7.09
-7.68
-8.36
-8.93
-9.18
-9.00
-8.43
-7.62
-6.73
-5.85
-4.98
-4.10
-3.16
-2.22
-1.37
-0.70
-0.28
-0.10
-0.11
-0.24
-0.40
-0.55
-0.63
-0.60
-0.43
-0.10
0.33
0.81
1.21
1.43
1.39
1.07
0.53
-0.12
-0.80
-1.41
-1.92
-2.34
-2.69
-2.99
-3.29
-3.65
-4.16
-4.88
-5.81
-6.82
-7.69
-8.19
-8.16
-7.57
-6.52
-5.17
-3.67
-2.09
-0.53
0.93
2.16
3.02
3.47
3.57
3.51
3.48
3.61
3.88
4.20
4.46
4.61
4.69
4.76
4.89
5.02
5.02
4.75
4.10
3.08
1.81
0.46
-0.84
-1.99
-2.95
-3.69
-4.18
-4.45
-4.60
-4.81
-5.28
-6.14
-7.34
-8.69
-9.85
-10.53
-10.56
-9.96
-8.87
-7.51
-6.03
-4.53
-3.04
-1.59
-0.25
0.92
1.87
2.56
3.04
3.36
3.58
3.75
3.89
4.07
4.35
4.77
5.31
5.86
6.29
6.52
6.53
6.36
6.08
5.69
5.15
4.44
3.60
2.75
2.08
1.71
1.62
1.66
1.60
1.26
0.55
-0.45
-1.60
-2.74
-3.71
-4.38
-4.65
-4.49
-3.88
-2.92
-1.75
-0.52
0.65
1.76
2.83
3.93
5.03
6.05
6.81
7.20
7.19
6.90
6.50
6.16
5.98
5.92
5.90
5.83
5.68
5.46
5.16
4.78
4.22
3.48
2.56
1.55
0.56
-0.33
-1.12
-1.88
-2.69
-3.60
-4.55
-5.45
-6.16
-6.59
-6.76
-6.76
-6.74
-6.83
-7.08
-7.45
-7.81
-8.01
-7.93
-7.50
-6.73
-5.64
-4.30
-2.76
-1.15
0.38
1.64
2.48
2.82
2.69
2.22
1.57
0.94
0.49
0.33
0.46
0.82
1.30
1.79
2.19
2.49
2.68
2.80
2.87
2.86
2.73
2.45
2.01
1.46
0.86
0.31
-0.11
-0.35
-0.42
-0.41
-0.43
-0.60
-0.98
-1.58
-2.33
-3.11
-3.80
-4.23
-4.30
-3.97
-3.28
-2.35
-1.31
-0.26
0.78
1.83
2.94
4.07
5.08
5.79
6.06
5.86
5.32
4.66
4.09
3.74
3.64
3.70
3.88
4.13
4.46
4.88
5.37
5.81
6.08
6.09
5.83
5.38
4.88
4.47
4.21
4.09
4.05
4.05
4.07
4.13
4.22
4.28
4.23
3.99
3.51
2.84
2.12
1.60
1.54
2.19
3.64
5.79
8.36
10.90
13.00
14.38
14.89
14.57
13.52
11.92
9.95
7.84
5.80
3.98
2.38
0.85
-0.81
-2.72
-4.81
-6.74
-8.08
-8.43
-7.67
-5.98
-3.80
-1.69
-0.16
0.47
0.08
-1.24
-3.28
-5.75
-8.32
-10.65
-12.44
-13.47
-13.71
-13.35
-12.66
-12.00
-11.57
-11.41
-11.44
-11.51
-11.54
-11.46
-11.27
-10.89
-10.29
-9.43
-8.28
-6.84
-5.05
-2.83
-0.15
2.88
5.96
8.70
10.78
12.11
12.90
13.59
14.60
16.12
17.98
19.69
20.67
20.45
18.90
16.23
12.96
9.70
7.04
5.39
4.91
5.52
6.87
8.43
9.65
10.09
9.62
8.51
7.31
6.63
6.84
7.93
9.54
11.13
12.29
12.83
12.83
12.47
11.89
11.12
10.21
9.23
8.39
7.95
7.99
8.29
8.36
7.66
5.84
2.97
-0.48
-3.89
-6.80
-9.08
-10.93
-12.64
-14.45
-16.38
-18.28
-19.92
-21.08
-21.58
-21.34
-20.45
-19.16
-17.96
-17.39
-17.85
-19.38
-21.58
-23.82
-25.49
-26.20
-25.95
-24.92
-23.31
-21.18
-18.43
-14.90
-10.53
-5.36
0.46
6.71
13.14
19.39
25.02
29.57
32.71
34.30
34.48
33.58
31.95
29.86
27.46
24.88
22.30
19.97
18.09
16.68
15.49
14.13
12.23
9.68
6.69
3.70
1.16
-0.67
-1.76
-2.33
-2.64
-2.93
-3.28
-3.68
-4.09
-4.45
-4.77
-5.11
-5.49
-5.87
-6.12
-6.10
-5.74
-5.15
-4.63
-4.56
-5.31
-7.00
-9.55
-12.63
-15.84
-18.80
-21.22
-22.91
-23.82
-24.03
-23.76
-23.30
-22.97
-22.85
-22.83
-22.63
-21.97
-20.78
-19.28
-17.80
-16.63
-15.88
-15.42
-15.02
-14.44
-13.56
-12.45
-11.23
-10.11
-9.23
-8.69
-8.48
-8.49
-8.54
-8.48
-8.22
-7.79
-7.35
-7.01
-6.82
-6.65
-6.37
-5.86
-5.06
-4.01
-2.81
-1.61
-0.55
0.27
0.81
1.09
1.14
0.98
0.68
0.31
-0.20
-0.88
-1.70
-2.54
-3.34
-4.04
-4.63
-5.13
-5.57
-6.30
-7.56
-9.28
-11.15
-12.85
-14.21
-15.25
-16.08
-16.78
-18.05
-20.28
-23.32
-26.54
-29.35
-31.50
-33.03
-34.12
-34.87
-36.34
-39.09
-42.73
-46.19
-48.45
-49.18
-48.59
-47.19
-45.37
-44.62
-45.66
-48.01
-50.42
-51.85
-52.13
-51.61
-50.57
-40.78
-18.53
13.36
47.03
75.36
95.31
107.26
113.15
115.22
115.05
112.42
106.97
99.20
90.61
82.76
76.54
71.96
68.38
65.87
63.15
59.55
55.57
52.55
51.60
52.71
54.72
55.96
54.99
50.58
42.95
33.76
25.34
19.42
16.46
15.77
16.10
16.25
15.00
11.75
6.66
0.53
-5.44
-10.03
-12.22
-11.49
-8.09
-3.17
1.82
5.63
7.75
8.38
8.16
7.76
7.57
7.60
7.60
7.36
6.78
6.01
5.20
4.33
3.24
1.60
-0.79
-3.84
-7.12
-10.02
-11.97
-12.65
-12.11
-10.76
-9.24
-8.33
-8.67
-10.60
-14.01
-18.27
-22.46
-25.67
-27.38
-27.61
-26.92
-26.08
-25.71
-26.08
-27.07
-28.32
-29.45
-30.23
-30.48
-30.01
-28.55
-25.82
-21.70
-16.46
-10.75
-5.43
-1.22
1.49
2.67
2.53
1.25
-1.07
-4.32
-8.13
-11.83
-14.54
-15.54
-14.67
-12.44
-9.95
-8.40
-8.64
-10.80
-14.32
-18.22
-21.48
-23.43
-23.90
-23.16
-21.72
-20.07
-18.49
-17.02
-15.56
-14.05
-12.50
-11.02
-9.73
-8.71
-7.89
-7.16
-6.36
-5.43
-4.45
-3.62
-3.18
-3.28
-3.90
-4.79
-5.62
-6.06
-6.00
-5.54
-5.01
-4.74
-4.92
-5.51
-6.22
-6.72
-6.79
-6.46
-6.02
-5.88
-6.33
-7.44
-8.95
-10.40
-11.30
-11.34
-10.51
-9.09
-7.56
-6.47
-6.22
-6.99
-8.63
-10.75
-12.88
-14.61
-15.73
-16.17
-15.92
-14.98
-13.30
-10.91
-7.97
-4.72
-1.46
1.61
4.38
6.81
8.83
10.34
11.31
11.83
12.20
12.84
14.10
16.15
18.87
21.95
24.93
27.29
28.48
28.03
25.64
21.38
15.68
9.33
3.18
-2.02
-5.68
-7.41
-6.92
-4.09
0.82
7.13
13.67
19.14
22.49
23.27
21.73
18.66
14.97
11.43
8.47
6.31
5.04
4.72
5.40
7.01
9.18
11.32
12.66
12.52
10.51
6.73
1.76
-3.50
-8.15
-11.55
-13.43
-13.90
-13.24
-11.73
-9.58
-6.89
-3.86
-0.78
1.93
3.87
4.75
4.51
3.31
1.47
-0.65
-2.75
-4.68
-6.40
-7.96
-9.37
-10.59
-11.45
-11.79
-11.48
-10.58
-9.33
-8.03
-6.97
-6.29
-5.94
-5.71
-5.40
-4.89
-4.21
-3.51
-2.94
-2.58
-2.33
-2.02
-1.45
-0.57
0.50
1.47
2.06
2.08
1.55
0.66
-0.36
-1.31
-2.13
-2.84
-3.50
-4.17
-4.88
-5.62
-6.31
-6.83
-7.04
-6.83
-6.22
-5.37
-4.52
-3.90
-3.66
-3.77
-4.08
-4.42
-4.64
-4.65
-4.36
-3.67
-2.46
-0.68
1.56
4.02
6.35
8.22
9.42
9.89
9.70
9.04
8.11
7.12
6.29
5.78
5.66
5.85
6.17
6.35
6.22
5.73
5.04
4.39
4.00
3.96
4.17
4.42
4.50
4.28
3.78
3.08
2.29
1.47
0.65
-0.13
-0.80
-1.23
-1.38
-1.28
-1.08
-0.99
-1.19
-1.82
-2.88
-4.25
-5.71
-6.95
-7.68
-7.70
-6.94
-5.49
-3.49
-1.15
1.36
3.84
6.09
7.90
9.11
9.68
9.74
9.52
9.27
9.17
9.27
9.56
10.00
10.57
11.24
11.90
12.40
12.57
12.27
11.49
10.35
9.06
7.85
6.87
6.20
5.78
5.51
5.24
4.87
4.28
3.43
2.32
0.98
-0.49
-1.97
-3.31
-4.41
-5.28
-6.04
-6.85
-7.91
-9.27
-10.83
-12.36
-13.62
-14.41
-14.63
-14.28
-13.42
-12.05
-10.25
-8.11
-5.82
-3.61
-1.68
-0.17
0.92
1.70
2.28
2.76
3.20
3.59
3.91
4.17
4.37
4.52
4.62
4.70
4.77
4.84
4.89
4.90
4.83
4.65
4.38
4.05
3.71
3.36
2.98
2.54
2.01
1.37
0.64
-0.14
-0.90
-1.62
-2.30
-3.00
-3.84
-4.92
-6.26
-7.78
-9.22
-10.32
-10.80
-10.57
-9.69
-8.37
-6.86
-5.33
-3.83
-2.31
-0.69
0.99
2.59
3.90
4.76
5.17
5.30
5.44
5.82
6.52
7.42
8.28
8.86
9.04
8.87
8.50
8.09
7.70
7.33
6.89
6.33
5.65
4.91
4.15
3.41
2.73
2.10
1.51
0.94
0.38
-0.20
-0.83
-1.51
-2.27
-3.14
-4.20
-5.48
-6.98
-8.55
-9.94
-10.88
-11.13
-10.61
-9.39
-7.66
-5.63
-3.47
-1.27
0.88
2.90
4.71
6.24
7.49
8.51
9.41
10.30
11.19
12.03
12.68
13.03
13.05
12.81
12.47
12.19
12.08
12.11
12.17
12.10
11.81
11.27
10.54
9.71
8.88
8.08
7.31
6.55
5.79
5.02
4.26
3.49
2.64
1.67
0.54
-0.69
-1.97
-3.19
-4.33
-5.40
-6.43
-7.42
-8.24
-8.71
-8.64
-7.92
-6.59
-4.84
-2.94
-1.16
0.36
1.60
2.65
3.61
4.51
5.30
5.86
6.15
6.24
6.33
6.64
7.32
8.38
9.66
10.92
11.92
12.53
12.74
12.66
12.40
12.08
11.74
11.35
10.87
10.22
9.33
8.15
6.66
4.88
2.88
0.74
-1.41
-3.44
-5.22
-6.70
-7.89
-8.94
-10.00
-11.21
-12.57
-13.90
-14.91
-15.27
-14.78
-13.42
-11.39
-9.02
-6.62
-4.45
-2.61
-1.12
-0.00
0.74
1.09
1.05
0.71
0.22
-0.25
-0.56
-0.62
-0.45
-0.09
0.38
0.87
1.33
1.74
2.09
2.39
2.62
2.77
2.77
2.64
2.44
2.34
2.48
2.92
3.54
4.05
4.13
3.56
2.35
0.74
-0.94
-2.41
-3.60
-4.56
-5.44
-6.34
-7.19
-7.85
-8.12
-7.94
-7.36
-6.53
-5.62
-4.75
-3.90
-3.03
-2.08
-1.07
-0.09
0.74
1.31
1.60
1.69
1.65
1.62
1.63
1.72
1.86
1.99
2.06
2.00
1.81
1.50
1.15
0.84
0.61
0.43
0.24
-0.08
-0.60
-1.29
-2.09
-2.86
-3.53
-4.10
-4.66
-5.31
-6.17
-7.24
-8.39
-9.44
-10.15
-10.34
-9.92
-8.87
-7.30
-5.35
-3.21
-1.02
1.12
3.14
5.01
6.69
8.11
9.13
9.67
9.66
9.16
8.34
7.37
6.39
5.49
4.64
3.75
2.73
1.53
0.10
-1.50
-3.23
-5.00
-6.73
-8.35
-9.83
-11.12
-12.19
-13.01
-13.58
-13.98
-14.32
-14.75
-15.36
-16.10
-16.82
-17.35
-17.56
-17.45
-17.08
-16.51
-15.75
-14.69
-13.19
-11.16
-8.65
-5.80
-2.82
0.06
2.71
5.02
6.95
8.45
9.55
10.34
10.93
11.44
11.92
12.32
12.56
12.57
12.36
12.00
11.61
11.23
10.89
10.52
10.11
9.68
9.28
8.93
8.57
8.12
7.47
6.65
5.72
4.82
4.01
3.29
2.56
1.72
0.72
-0.42
-1.59
-2.70
-3.63
-4.35
-4.85
-5.18
-5.46
-5.78
-6.25
-6.91
-7.78
-8.80
-9.93
-11.06
-12.05
-12.73
-12.90
-12.47
-11.42
-9.83
-7.88
-5.72
-3.48
-1.32
0.66
2.34
3.64
4.54
5.11
5.47
5.75
6.02
6.27
6.46
6.56
6.57
6.52
6.49
6.50
6.56
6.60
6.50
6.16
5.57
4.77
3.90
3.07
2.36
1.74
1.15
0.52
-0.18
-0.93
-1.71
-2.52
-3.37
-4.30
-5.29
-6.31
-7.26
-8.05
-8.60
-8.85
-8.77
-8.31
-7.47
-6.22
-4.58
-2.60
-0.37
1.97
4.23
6.21
7.74
8.73
9.20
9.28
9.12
8.90
8.79
8.86
9.16
9.67
10.26
10.77
11.03
10.94
10.53
9.95
9.37
8.96
8.75
8.64
8.50
8.18
7.66
6.97
6.24
5.56
4.96
4.41
3.84
3.19
2.46
1.70
0.99
0.37
-0.14
-0.57
-0.95
-1.22
-1.24
-0.84
0.17
1.83
4.05
6.59
9.18
11.58
13.69
15.52
17.18
18.77
20.38
22.07
23.84
25.65
27.38
28.89
29.95
30.33
29.80
28.20
25.45
21.62
16.87
11.49
5.84
0.31
-4.81
-9.28
-13.00
-15.94
-18.15
-19.73
-20.80
-21.51
-21.92
-22.08
-22.01
-21.69
-21.18
-20.55
-19.95
-19.54
-19.43
-19.60
-19.90
-20.03
-19.67
-18.60
-16.73
-14.18
-11.26
-8.28
-5.53
-3.11
-0.96
1.20
3.71
6.86
10.83
15.51
20.45
24.90
27.87
28.45
26.14
21.05
13.94
6.05
-1.34
-7.27
-11.30
-13.51
-14.26
-13.90
-12.66
-10.65
-8.03
-5.18
-2.62
-0.89
-0.30
-0.78
-1.97
-3.45
-4.93
-6.40
-8.06
-10.08
-12.32
-14.35
-15.50
-15.27
-13.57
-10.84
-7.90
-5.50
-4.05
-3.44
-3.17
-2.58
-1.10
1.73
6.23
12.54
20.50
29.47
38.23
45.26
49.22
49.46
46.32
40.95
34.86
29.30
24.93
21.84
19.66
17.90
16.02
13.56
10.22
5.94
0.99
-4.06
-8.49
-11.67
-13.25
-13.32
-12.28
-10.73
-9.37
-8.79
-9.41
-11.32
-14.11
-16.94
-18.64
-18.20
-15.14
-9.80
-3.31
2.78
7.09
8.84
8.04
5.37
1.76
-1.96
-5.32
-8.22
-10.73
-12.98
-14.96
-16.57
-17.62
-17.92
-17.34
-15.86
-13.62
-10.87
-8.04
-5.66
-4.28
-4.30
-5.78
-8.39
-11.40
-13.99
-15.55
-15.94
-15.63
-15.47
-16.35
-18.82
-22.81
-27.71
-32.58
-36.51
-38.86
-39.38
-38.15
-35.37
-31.30
-26.16
-20.30
-14.19
-8.51
-3.90
-0.79
0.87
1.56
1.96
2.62
3.68
4.87
5.73
5.89
5.39
4.57
3.98
4.02
4.77
6.03
7.42
8.62
9.46
9.92
10.03
9.79
9.12
7.96
6.31
4.28
2.06
-0.18
-2.33
-4.44
-6.60
-8.87
-11.17
-13.26
-14.87
-15.73
-15.75
-14.99
-13.61
-11.81
-9.78
-7.61
-5.39
-3.22
-1.23
0.45
1.79
2.82
3.71
4.63
5.70
6.95
8.27
9.52
10.59
11.48
12.26
13.07
13.98
14.97
15.94
16.75
17.30
17.54
17.49
17.25
17.04
17.08
17.44
17.95
17.99
16.62
12.89
6.27
-2.96
-13.71
-24.40
-33.46
-39.79
-42.93
-42.97
-40.33
-35.54
-29.25
-22.23
-15.33
-9.34
-4.81
-1.85
-0.26
0.44
0.70
0.89
1.26
1.95
3.07
4.62
6.52
8.58
10.56
12.19
13.19
13.29
12.36
10.51
8.18
6.08
4.92
5.13
6.64
8.83
10.86
12.07
12.19
11.40
10.10
8.59
7.01
5.35
3.70
2.38
1.91
2.76
5.05
8.44
12.19
15.56
18.09
19.85
21.38
23.31
26.02
29.33
32.52
34.56
34.57
32.20
27.66
21.70
15.23
9.20
4.36
1.34
0.40
1.45
3.85
6.54
8.29
8.15
5.74
1.44
-3.80
-8.87
-12.85
-15.31
-16.35
-16.44
-16.17
-15.99
-16.11
-16.39
-16.53
-16.24
-15.33
-13.84
-11.93
-9.65
-6.94
-3.61
0.44
5.07
9.83
14.19
17.78
20.67
23.30
26.21
29.74
33.75
37.69
40.86
42.70
42.90
41.35
37.92
32.49
25.06
16.01
6.15
-3.47
-11.99
-19.08
-25.00
-30.25
-35.12
-39.38
-42.36
-43.42
-42.33
-39.43
-35.49
-31.34
-27.54
-24.26
-21.37
-18.63
-15.85
-13.00
-10.23
-7.80
-5.90
-4.57
-3.55
-2.41
-0.69
1.88
5.13
8.56
11.52
13.44
14.07
13.51
12.02
9.94
7.55
5.07
2.67
0.57
-1.07
-2.12
-2.60
-2.73
-2.77
-2.92
-3.21
-3.49
-3.58
-3.46
-3.37
-3.65
-4.54
-5.88
-7.15
-7.73
-7.17
-5.56
-3.42
-1.48
-0.28
0.01
-0.35
-1.01
-1.70
-2.38
-3.18
-4.26
-5.64
-7.14
-8.44
-9.22
-9.26
-8.58
-7.38
-5.97
-4.56
-3.16
-1.63
0.18
2.30
4.48
6.39
7.73
8.46
8.80
9.05
9.37
9.68
9.76
9.38
8.59
7.62
6.78
6.22
5.78
5.14
4.00
2.34
0.38
-1.51
-3.04
-4.21
-5.26
-6.49
-8.06
-9.91
-11.80
-13.43
-14.64
-15.42
-15.92
-16.24
-16.41
-16.26
-15.58
-14.20
-12.11
-9.54
-6.85
-4.44
-2.54
-1.22
-0.37
0.19
0.64
1.07
1.47
1.81
2.05
2.16
2.15
2.03
1.83
1.58
1.28
0.93
0.50
-0.00
-0.53
-1.02
-1.37
-1.59
-1.77
-2.10
-2.77
-3.87
-5.29
-6.77
-8.06
-9.01
-9.71
-10.38
-11.23
-12.31
-13.48
-14.47
-15.04
-15.09
-14.64
-13.81
-12.67
-11.21
-9.42
-7.31
-5.03
-2.76
-0.74
0.90
2.14
3.03
3.68
4.20
4.61
4.91
5.09
5.19
5.26
5.37
5.57
5.84
6.11
6.27
6.27
6.09
5.80
5.47
5.14
4.78
4.32
3.68
2.85
1.87
0.86
-0.11
-0.97
-1.76
-2.51
-3.31
-4.12
-4.90
-5.46
-5.60
-5.16
-4.07
-2.38
-0.25
2.12
4.55
6.88
9.02
10.88
12.39
13.46
14.11
14.43
14.57
14.75
15.04
15.36
15.49
15.13
14.09
12.38
10.29
8.14
6.26
4.72
3.35
1.87
0.08
-2.00
-4.07
-5.76
-6.82
-7.28
-7.44
-7.71
-8.35
-9.37
-10.55
-11.60
-12.32
-12.69
-12.81
-12.78
-12.56
-11.96
-10.79
-8.93
-6.46
-3.64
-0.75
1.95
4.32
6.33
7.98
9.30
10.29
10.97
11.43
11.78
12.17
12.66
13.22
13.75
14.11
14.23
14.13
13.92
13.69
13.54
13.52
13.66
14.02
14.67
15.66
16.97
18.36
19.47
19.85
19.22
17.56
15.17
12.48
9.90
7.62
5.62
3.83
2.26
1.02
0.25
-0.07
-0.22
-0.66
-1.76
-3.60
-5.84
-7.86
-9.10
-9.39
-9.10
-9.01
-9.94
-12.30
-15.79
-19.54
-22.40
-23.61
-23.08
-21.46
-19.71
-18.57
-18.20
-18.15
-17.74
-16.44
-14.18
-11.30
-8.29
-5.52
-3.05
-0.77
1.51
3.85
6.23
8.52
10.67
12.75
14.90
17.27
19.89
22.57
24.91
26.44
26.76
25.72
23.44
20.23
16.52
12.74
9.24
6.27
4.05
2.70
2.26
2.66
3.76
5.32
7.07
8.71
9.91
10.37
9.85
8.25
5.61
2.15
-1.85
-6.08
-10.18
-13.80
-16.67
-18.60
-19.57
-19.78
-19.53
-19.16
-18.93
-18.99
-19.34
-19.82
-20.12
-19.81
-18.54
-16.20
-13.18
-10.27
-8.45
-8.44
-10.40
-13.77
-17.68
-21.37
-24.49
-27.22
-30.01
-33.25
-37.06
-41.21
-45.12
-48.07
-49.32
-48.37
-45.16
-40.06
-33.85
-27.36
-21.21
-15.66
-10.66
-6.15
-2.19
0.96
3.07
4.12
4.43
4.57
5.06
6.17
7.84
9.71
11.27
12.16
12.22
11.62
10.69
9.83
9.27
9.02
8.89
8.65
8.14
7.35
6.42
5.50
4.71
4.03
3.30
2.35
1.01
-0.76
-2.83
-4.91
-6.63
-7.65
-7.75
-6.95
-5.42
-3.44
-1.30
0.81
2.79
4.57
6.05
7.10
7.61
7.57
7.12
6.56
6.23
6.34
6.93
7.77
8.55
8.97
8.90
8.39
7.64
6.89
6.27
5.84
5.54
5.27
4.93
4.48
3.91
3.27
2.64
2.04
1.48
0.92
0.29
-0.50
-1.48
-2.60
-3.76
-4.82
-5.61
-5.99
-5.86
-5.18
-3.96
-2.32
-0.37
1.71
3.77
5.72
7.50
9.03
10.26
11.12
11.54
11.55
11.24
10.79
10.42
10.29
10.46
10.83
11.25
11.56
11.64
11.47
11.07
10.48
9.74
8.86
7.83
6.69
5.50
4.38
3.42
2.64
1.99
1.34
0.58
-0.37
-1.49
-2.75
-4.10
-5.50
-6.93
-8.29
-9.39
-9.97
-9.81
-8.84
-7.17
-5.04
-2.73
-0.45
1.74
3.87
5.94
7.91
9.65
10.98
11.77
12.01
11.82
11.44
11.13
11.07
11.31
11.73
12.12
12.30
12.21
11.92
11.63
11.50
11.52
11.59
11.44
10.89
9.89
8.58
7.21
5.99
5.03
4.28
3.61
2.90
2.11
1.29
0.48
-0.31
-1.18
-2.24
-3.53
-4.92
-6.09
-6.65
-6.30
-5.02
-3.07
-0.91
1.02
2.46
3.42
4.07
4.58
5.01
5.23
5.15
4.77
4.27
3.92
3.93
4.26
4.71
5.00
5.00
4.77
4.53
4.49
4.72
5.05
5.25
5.08
4.52
3.70
2.87
2.21
1.77
1.47
1.14
0.60
-0.18
-1.14
-2.15
-3.09
-3.93
-4.69
-5.44
-6.17
-6.79
-7.14
-7.06
-6.42
-5.24
-3.59
-1.64
0.43
2.45
4.28
5.80
6.93
7.62
7.89
7.84
7.60
7.35
7.24
7.32
7.53
7.74
7.82
7.67
7.29
6.74
6.13
5.52
4.94
4.37
3.76
3.09
2.36
1.63
0.93
0.30
-0.25
-0.77
-1.33
-1.97
-2.71
-3.56
-4.48
-5.49
-6.58
-7.73
-8.84
-9.71
-10.14
-9.95
-9.08
-7.61
-5.73
-3.62
-1.47
0.54
2.30
3.68
4.65
5.23
5.53
5.68
5.79
5.92
6.05
6.19
6.36
6.62
6.98
7.38
7.67
7.66
7.26
6.50
5.53
4.59
3.83
3.27
2.84
2.40
1.86
1.22
0.51
-0.17
-0.81
-1.40
-2.00
-2.66
-3.40
-4.23
-5.13
-6.02
-6.82
-7.40
-7.63
-7.42
-6.74
-5.65
-4.27
-2.73
-1.11
0.54
2.17
3.68
4.96
5.87
6.33
6.37
6.09
5.67
5.27
4.97
4.79
4.69
4.62
4.57
4.56
4.61
4.71
4.80
4.81
4.64
4.27
3.71
3.00
2.17
1.24
0.18
-0.98
-2.15
-3.22
-4.06
-4.63
-4.95
-5.17
-5.46
-5.96
-6.76
-7.78
-8.85
-9.76
-10.31
-10.38
-9.96
-9.15
-8.05
-6.78
-5.43
-4.06
-2.77
-1.66
-0.81
-0.28
-0.07
-0.10
-0.24
-0.37
-0.37
-0.20
0.11
0.45
0.70
0.78
0.67
0.45
0.22
0.09
0.07
0.09
0.05
-0.16
-0.53
-0.97
-1.39
-1.69
-1.86
-1.99
-2.17
-2.50
-2.99
-3.60
-4.22
-4.78
-5.21
-5.55
-5.86
-6.18
-6.46
-6.57
-6.31
-5.50
-4.13
-2.38
-0.54
1.06
2.23
2.99
3.52
4.02
4.55
5.06
5.36
5.32
4.95
4.41
3.95
3.76
3.86
4.12
4.34
4.35
4.14
3.80
3.47
3.20
2.92
2.49
1.78
0.75
-0.47
-1.67
-2.60
-3.14
-3.32
-3.32
-3.41
-3.79
-4.54
-5.57
-6.67
-7.62
-8.26
-8.57
-8.60
-8.42
-8.03
-7.40
-6.44
-5.18
-3.73
-2.26
-0.98
-0.01
0.60
0.88
0.85
0.55
-0.03
-0.84
-1.76
-2.57
-3.03
-2.96
-2.33
-1.28
-0.02
1.18
2.18
2.94
3.51
3.97
4.36
4.69
4.93
5.13
5.38
5.84
6.59
7.63
8.81
9.94
10.86
11.49
11.86
12.09
12.26
12.38
12.39
12.20
11.74
11.02
10.18
9.43
9.01
9.07
9.64
10.52
11.45
12.12
12.27
11.81
10.78
9.30
7.51
5.55
3.48
1.41
-0.56
-2.33
-3.81
-4.99
-5.92
-6.71
-7.49
-8.33
-9.26
-10.24
-11.24
-12.23
-13.19
-14.12
-14.97
-15.66
-16.13
-16.31
-16.19
-15.79
-15.16
-14.39
-13.59
-12.91
-12.49
-12.38
-12.52
-12.72
-12.70
-12.27
-11.36
-10.10
-8.69
-7.35
-6.18
-5.16
-4.20
-3.31
